  9.97     578.00
 10.07     623.00
 10.17     617.53
 10.27     611.00
 10.37     569.28
 10.47     599.00
 10.57     604.70
 10.67     588.00
 10.77     572.00
 10.87     613.16
 10.97     604.60
 11.07     615.00
 11.17     565.85
 11.27     604.00
 11.37     623.00
 11.47     603.00
 11.57     580.00
 11.67     644.00
 11.77     587.23
 11.87     667.00
 11.97     615.00
 12.07     650.90
 12.17     732.00
 12.27     732.61
 12.37     676.30
 12.47     678.63
 12.57     597.00
 12.67     624.31
 12.77     526.00
 12.87     554.00
 12.97     524.00
 13.07     560.00
 13.17     535.86
 13.27     584.44
 13.37     586.00
 13.47     530.64
 13.57     541.71
 13.67     591.47
 13.77     566.39
 13.87     557.00
 13.97     559.00
 14.07     577.00
 14.17     620.00
 14.27     545.11
 14.37     599.10
 14.47     538.00
 14.57     587.12
 14.67     559.65
 14.77     566.00
 14.87     548.71
 14.97     515.00
 15.07     572.92
 15.17     571.69
 15.27     556.00
 15.37     560.74
 15.47     605.00
 15.57     601.00
 15.67     582.00
 15.77     605.00
 15.87     558.10
 15.97     527.00
 16.07     558.82
 16.17     566.77
 16.27     551.19
 16.37     583.00
 16.47     552.00
 16.57     562.00
 16.67     566.00
 16.77     556.29
 16.87     529.19
 16.97     590.12
 17.07     554.00
 17.17     557.00
 17.27     538.00
 17.37     583.00
 17.47     576.00
 17.57     551.00
 17.67     602.14
 17.77     551.00
 17.87     521.28
 17.97     569.00
 18.07     556.00
 18.17     604.08
 18.27     548.15
 18.37     529.20
 18.47     514.00
 18.57     520.31
 18.67     586.00
 18.77     580.00
 18.87     562.00
 18.97     607.23
 19.07     597.32
 19.17     524.00
 19.27     532.56
 19.37     556.00
 19.47     533.00
 19.57     573.00
 19.67     566.81
 19.77     596.79
 19.87     600.00
 19.97     547.00
 20.07     566.00
 20.17     561.91
 20.27     515.00
 20.37     556.00
 20.47     574.13
 20.57     533.00
 20.67     572.00
 20.77     523.25
 20.87     565.00
 20.97     558.00
 21.07     517.00
 21.17     587.00
 21.27     529.00
 21.37     553.00
 21.47     549.63
 21.57     516.34
 21.67     517.54
 21.77     569.00
 21.87     594.40
 21.97     516.04
 22.07     559.97
 22.17     570.40
 22.27     568.00
 22.37     526.84
 22.47     562.00
 22.57     530.65
 22.67     570.00
 22.77     534.00
 22.87     559.00
 22.97     523.59
 23.07     576.00
 23.17     512.00
 23.27     517.00
 23.37     587.44
 23.47     582.80
 23.57     541.47
 23.67     543.00
 23.77     535.79
 23.87     554.00
 23.97     557.29
 24.07     545.00
 24.17     564.04
 24.27     571.00
 24.37     603.00
 24.47     572.00
 24.57     628.62
 24.67     601.67
 24.77     669.18
 24.87     673.05
 24.97     627.00
 25.07     623.00
 25.17     614.07
 25.27     540.34
 25.37     591.09
 25.47     526.66
 25.57     565.00
 25.67     558.00
 25.77     588.00
 25.87     576.00
 25.97     555.00
 26.07     531.00
 26.17     563.00
 26.27     512.80
 26.37     545.15
 26.47     564.30
 26.57     577.68
 26.67     601.00
 26.77     581.00
 26.87     540.00
 26.97     586.00
 27.07     507.94
 27.17     574.54
 27.27     593.00
 27.37     620.00
 27.47     538.00
 27.57     516.53
 27.67     601.00
 27.77     582.47
 27.87     598.00
 27.97     629.99
 28.07     800.60
 28.17     937.25
 28.27     956.28
 28.37     859.78
 28.47     772.00
 28.57     723.71
 28.67     705.00
 28.77     765.00
 28.87     828.00
 28.97     783.00
 29.07     721.00
 29.17     759.00
 29.27     650.00
 29.37     605.00
 29.47     555.05
 29.57     541.70
 29.67     553.21
 29.77     605.40
 29.87     534.32
 29.97     580.85
 30.07     507.30
 30.17     557.00
 30.27     561.00
 30.37     548.83
 30.47     587.00
 30.57     630.00
 30.67     568.00
 30.77     617.00
 30.87     654.00
 30.97     598.00
 31.07     602.15
 31.17     608.26
 31.27     540.00
 31.37     587.00
 31.47     542.00
 31.57     563.00
 31.67     488.36
 31.77     575.06
 31.87     506.00
 31.97     562.00
 32.07     542.00
 32.17     561.00
 32.27     547.00
 32.37     547.00
 32.47     517.40
 32.57     553.00
 32.67     531.00
 32.77     488.03
 32.87     566.00
 32.97     513.00
 33.07     518.00
 33.17     544.00
 33.27     537.03
 33.37     569.00
 33.47     549.00
 33.57     596.85
 33.67     630.00
 33.77     773.54
 33.87     922.88
 33.97    1010.00
 34.07    1101.72
 34.17    1041.00
 34.27     919.00
 34.37     776.00
 34.47     650.00
 34.57     621.00
 34.67     582.87
 34.77     534.00
 34.87     575.00
 34.97     552.00
 35.07     550.37
 35.17     492.21
 35.27     541.70
 35.37     514.83
 35.47     518.00
 35.57     459.00
 35.67     516.00
 35.77     548.17
 35.87     511.80
 35.97     502.00
 36.07     472.00
 36.17     517.00
 36.27     518.00
 36.37     508.00
 36.47     528.00
 36.57     535.86
 36.67     500.30
 36.77     524.10
 36.87     523.00
 36.97     501.00
 37.07     555.00
 37.17     539.00
 37.27     516.00
 37.37     463.00
 37.47     527.00
 37.57     495.92
 37.67     534.00
 37.77     531.00
 37.87     569.70
 37.97     561.00
 38.07     511.00
 38.17     525.55
 38.27     478.79
 38.37     497.00
 38.47     528.00
 38.57     453.00
 38.67     495.00
 38.77     522.00
 38.87     474.00
 38.97     476.00
 39.07     520.00
 39.17     491.00
 39.27     525.00
 39.37     563.00
 39.47     537.00
 39.57     478.00
 39.67     504.00
 39.77     483.00
 39.87     496.00
 39.97     517.64
 40.07     506.81
 40.17     480.00
 40.27     522.00
 40.37     513.75
 40.47     486.00
 40.57     484.50
 40.67     510.93
 40.77     519.00
 40.87     500.38
 40.97     494.00
 41.07     491.00
 41.17     484.00
 41.27     526.00
 41.37     506.37
 41.47     540.26
 41.57     514.03
 41.67     524.00
 41.77     510.74
 41.87     528.00
 41.97     487.00
 42.07     505.00
 42.17     520.42
 42.27     516.74
 42.37     551.00
 42.47     534.00
 42.57     582.00
 42.67     568.00
 42.77     632.18
 42.87     604.00
 42.97     566.00
 43.07     514.25
 43.17     548.39
 43.27     539.00
 43.37     521.37
 43.47     530.09
 43.57     519.00
 43.67     475.00
 43.77     486.00
 43.87     466.38
 43.97     493.00
 44.07     504.00
 44.17     488.01
 44.27     470.94
 44.37     531.00
 44.47     533.00
 44.57     523.00
 44.67     491.00
 44.77     552.00
 44.87     520.00
 44.97     553.00
 45.07     504.00
 45.17     489.00
 45.27     502.55
 45.37     526.00
 45.47     465.00
 45.57     551.00
 45.67     498.00
 45.77     547.54
 45.87     507.00
 45.97     520.00
 46.07     477.10
 46.17     494.66
 46.27     481.12
 46.37     468.43
 46.47     468.64
 46.57     514.34
 46.67     480.00
 46.77     468.86
 46.87     479.00
 46.97     543.43
 47.07     528.00
 47.17     530.97
 47.27     497.00
 47.37     522.00
 47.47     537.00
 47.57     628.00
 47.67     609.00
 47.77     587.00
 47.87     601.00
 47.97     595.00
 48.07     539.00
 48.17     525.52
 48.27     597.35
 48.37     547.43
 48.47     553.00
 48.57     575.46
 48.67     542.00
 48.77     506.49
 48.87     515.63
 48.97     582.00
 49.07     560.00
 49.17     613.00
 49.27     613.00
 49.37     637.00
 49.47     721.00
 49.57     776.00
 49.67     860.33
 49.77    1108.00
 49.87    1419.00
 49.97    1888.00
 50.07    2248.09
 50.17    2523.00
 50.27    2491.00
 50.37    2138.00
 50.47    1820.00
 50.57    1388.00
 50.67    1091.71
 50.77     810.00
 50.87     761.08
 50.97     715.57
 51.07     645.00
 51.17     622.00
 51.27     562.33
 51.37     601.00
 51.47     587.00
 51.57     575.00
 51.67     559.00
 51.77     519.00
 51.87     566.00
 51.97     517.23
 52.07     511.08
 52.17     535.00
 52.27     570.65
 52.37     565.00
 52.47     549.00
 52.57     554.00
 52.67     618.00
 52.77     638.00
 52.87     651.00
 52.97     744.34
 53.07     797.00
 53.17     922.00
 53.27    1031.00
 53.37    1087.55
 53.47    1213.72
 53.57    1159.00
 53.67    1148.92
 53.77     991.00
 53.87     854.31
 53.97     713.00
 54.07     685.00
 54.17     670.93
 54.27     602.00
 54.37     537.95
 54.47     532.24
 54.57     626.00
 54.67     567.00
 54.77     515.61
 54.87     567.00
 54.97     595.00
 55.07     604.00
 55.17     521.66
 55.27     574.00
 55.37     557.00
 55.47     593.15
 55.57     577.00
 55.67     582.00
 55.77     614.10
 55.87     596.00
 55.97     605.00
 56.07     676.00
 56.17     749.00
 56.27     870.00
 56.37    1211.88
 56.47    1370.00
 56.57    1731.00
 56.67    2070.00
 56.77    2514.00
 56.87    2620.00
 56.97    2608.00
 57.07    2406.00
 57.17    2037.00
 57.27    1625.00
 57.37    1314.07
 57.47    1040.00
 57.57     874.00
 57.67     803.00
 57.77     662.33
 57.87     662.33
 57.97     732.00
 58.07     665.00
 58.17     672.00
 58.27     833.00
 58.37     801.00
 58.47     910.00
 58.57    1045.26
 58.67    1143.00
 58.77    1313.00
 58.87    1422.00
 58.97    1500.00
 59.07    1473.00
 59.17    1493.00
 59.27    1442.00
 59.37    1305.42
 59.47    1337.00
 59.57    1208.00
 59.67    1136.00
 59.77    1122.00
 59.87    1139.45
 59.97    1294.48
 60.07    1409.91
 60.17    1477.00
 60.27    1536.32
 60.37    1497.00
 60.47    1360.71
 60.57    1254.12
 60.67    1078.00
 60.77     937.00
 60.87     800.00
 60.97     692.69
 61.07     649.75
 61.17     605.00
 61.27     634.00
 61.37     694.00
 61.47     676.67
 61.57     793.00
 61.67     825.00
 61.77     985.62
 61.87    1083.64
 61.97    1238.04
 62.07    1345.00
 62.17    1405.00
 62.27    1355.00
 62.37    1325.00
 62.47    1146.56
 62.57     976.00
 62.67     855.00
 62.77     810.00
 62.87     704.00
 62.97     610.00
 63.07     584.37
 63.17     584.00
 63.27     511.00
 63.37     601.00
 63.47     531.52
 63.57     536.93
 63.67     600.49
 63.77     639.00
 63.87     644.00
 63.97     653.88
 64.07     699.00
 64.17     763.00
 64.27     854.00
 64.37     902.00
 64.47     972.00
 64.57    1080.00
 64.67    1034.00
 64.77    1068.86
 64.87    1018.23
 64.97     933.43
 65.07     853.00
 65.17     757.93
 65.27     726.51
 65.37     678.18
 65.47     666.00
 65.57     632.00
 65.67     610.90
 65.77     607.39
 65.87     566.00
 65.97     579.00
 66.07     530.00
 66.17     560.00
 66.27     559.00
 66.37     554.99
 66.47     580.12
 66.57     586.00
 66.67     606.79
 66.77     579.00
 66.87     558.00
 66.97     591.00
 67.07     644.00
 67.17     658.33
 67.27     815.00
 67.37     850.00
 67.47    1020.71
 67.57    1313.00
 67.67    1525.00
 67.77    1816.00
 67.87    2171.00
 67.97    2261.00
 68.07    2488.46
 68.17    2437.00
 68.27    2299.65
 68.37    2091.00
 68.47    1826.00
 68.57    1590.00
 68.67    1329.66
 68.77    1079.00
 68.87     841.00
 68.97     798.53
 69.07     732.99
 69.17     657.54
 69.27     665.52
 69.37     607.00
 69.47     610.00
 69.57     613.28
 69.67     574.66
 69.77     559.28
 69.87     553.00
 69.97     587.92
 70.07     602.00
 70.17     536.00
 70.27     587.00
 70.37     550.00
 70.47     591.00
 70.57     600.12
 70.67     567.05
 70.77     574.00
 70.87     599.86
 70.97     610.55
 71.07     661.99
 71.17     741.00
 71.27     829.00
 71.37     946.62
 71.47    1090.00
 71.57    1269.00
 71.67    1386.00
 71.77    1716.99
 71.87    1780.83
 71.97    1930.58
 72.07    1922.70
 72.17    1892.00
 72.27    1822.62
 72.37    1683.10
 72.47    1503.23
 72.57    1297.00
 72.67    1185.00
 72.77    1058.00
 72.87     983.95
 72.97     825.00
 73.07     826.66
 73.17     710.00
 73.27     691.00
 73.37     661.00
 73.47     628.00
 73.57     688.67
 73.67     621.00
 73.77     621.00
 73.87     605.00
 73.97     626.74
 74.07     593.00
 74.17     625.00
 74.27     648.00
 74.37     588.00
 74.47     629.00
 74.57     651.00
 74.67     607.00
 74.77     591.06
 74.87     520.16
 74.97     616.00
 75.07     557.00
 75.17     597.00
 75.27     541.00
 75.37     546.00
 75.47     548.78
 75.57     577.00
 75.67     572.00
 75.77     582.00
 75.87     623.00
 75.97     605.00
 76.07     623.00
 76.17     635.35
 76.27     713.00
 76.37     680.00
 76.47     709.00
 76.57     738.00
 76.67     662.74
 76.77     727.22
 76.87     690.34
 76.97     655.00
 77.07     624.45
 77.17     644.99
 77.27     529.00
 77.37     575.32
 77.47     532.00
 77.57     530.00
 77.67     504.17
 77.77     499.00
 77.87     492.66
 77.97     562.00
 78.07     498.00
 78.17     556.44
 78.27     502.00
 78.37     525.00
 78.47     503.00
 78.57     508.33
 78.67     496.00
 78.77     539.00
 78.87     510.79
 78.97     496.00
 79.07     565.00
 79.17     478.00
 79.27     539.00
 79.37     521.24
 79.47     548.00
 79.57     568.54
 79.67     550.00
 79.77     495.00
 79.87     537.00
 79.97     570.00
 80.07     540.00
 80.17     517.11
 80.27     561.00
 80.37     582.00
 80.47     600.00
 80.57     595.43
 80.67     587.00
 80.77     670.00
 80.87     634.00
 80.97     672.03
 81.07     696.00
 81.17     746.74
 81.27     775.00
 81.37     747.00
 81.47     797.00
 81.57     717.00
 81.67     698.53
 81.77     772.00
 81.87     702.00
 81.97     663.10
 82.07     677.00
 82.17     649.00
 82.27     669.00
 82.37     664.00
 82.47     637.00
 82.57     612.00
 82.67     554.00
 82.77     593.00
 82.87     571.00
 82.97     572.38
 83.07     527.00
 83.17     537.12
 83.27     574.87
 83.37     545.00
 83.47     563.00
 83.57     543.71
 83.67     554.00
 83.77     539.27
 83.87     567.00
 83.97     560.00
 84.07     570.99
 84.17     581.50
 84.27     564.12
 84.37     521.00
 84.47     597.00
 84.57     586.55
 84.67     590.00
 84.77     546.12
 84.87     511.00
 84.97     504.71
 85.07     544.00
 85.17     505.00
 85.27     541.00
 85.37     561.00
 85.47     509.00
 85.57     554.15
 85.67     508.00
 85.77     512.00
 85.87     560.00
 85.97     519.58
 86.07     540.00
 86.17     599.00
 86.27     484.00
 86.37     548.00
 86.47     537.00
 86.57     515.00
 86.67     566.00
 86.77     600.75
 86.87     605.00
 86.97     625.00
 87.07     619.00
 87.17     646.00
 87.27     631.09
 87.37     672.00
 87.47     669.91
 87.57     655.00
 87.67     664.87
 87.77     648.00
 87.87     623.00
 87.97     635.53
 88.07     606.77
 88.17     605.00
 88.27     640.00
 88.37     561.03
 88.47     594.00
 88.57     592.00
 88.67     579.00
 88.77     569.51
 88.87     611.82
 88.97     599.00
 89.07     603.00
 89.17     581.00
 89.27     601.00
 89.37     576.00
 89.47     623.36
 89.57     617.23
 89.67     579.72
 89.77     564.64
 89.87     580.96
 89.97     535.28
 90.07     523.70
 90.17     519.00
 90.27     532.00
 90.37     461.00
 90.47     556.86
 90.57     510.44
 90.67     517.00
 90.77     514.00
 90.87     521.00
 90.97     524.00
 91.07     509.00
 91.17     531.00
 91.27     510.46
 91.37     570.84
 91.47     551.42
 91.57     476.00
 91.67     576.41
 91.77     500.45
 91.87     527.00
 91.97     564.00
 92.07     570.00
 92.17     576.00
 92.27     625.09
 92.37     606.95
 92.47     615.31
 92.57     602.28
 92.67     674.39
 92.77     674.00
 92.87     680.51
 92.97     704.00
 93.07     793.00
 93.17     748.00
 93.27     810.34
 93.37     803.00
 93.47     791.00
 93.57     820.00
 93.67     817.00
 93.77     858.39
 93.87     825.00
 93.97     842.10
 94.07     899.00
 94.17     786.60
 94.27     871.00
 94.37     806.39
 94.47     899.00
 94.57     899.89
 94.67     845.89
 94.77     972.00
 94.87     908.88
 94.97     874.12
 95.07     934.00
 95.17     882.00
 95.27     788.82
 95.37     764.00
 95.47     782.00
 95.57     767.00
 95.67     740.03
 95.77     707.57
 95.87     737.00
 95.97     682.38
 96.07     647.94
 96.17     710.49
 96.27     742.00
 96.37     800.00
 96.47     798.00
 96.57     854.00
 96.67     934.24
 96.77    1008.00
 96.87    1110.35
 96.97    1168.00
 97.07    1246.00
 97.17    1313.00
 97.27    1393.00
 97.37    1387.00
 97.47    1402.00
 97.57    1497.00
 97.67    1429.50
 97.77    1338.13
 97.87    1350.00
 97.97    1272.00
 98.07    1248.00
 98.17    1222.00
 98.27    1084.00
 98.37    1024.00
 98.47     944.00
 98.57     850.00
 98.67     850.00
 98.77     838.08
 98.87     781.00
 98.97     782.00
 99.07     788.60
 99.17     803.00
 99.27     904.00
 99.37     941.00
 99.47    1034.00
 99.57    1130.87
 99.67    1171.00
 99.77    1262.82
 99.87    1341.00
 99.97    1539.00
100.07    1618.00
100.17    1698.00
100.27    1863.00
100.37    1934.00
100.47    1913.00
100.57    2000.70
100.67    2122.60
100.77    2110.31
100.87    2039.62
100.97    1982.00
101.07    1979.00
101.17    1906.00
101.27    1842.00
101.37    1729.00
101.47    1642.89
101.57    1581.00
101.67    1491.48
101.77    1298.12
101.87    1231.97
101.97    1243.00
102.07    1231.50
102.17    1116.00
102.27    1130.00
102.37    1130.23
102.47    1068.00
102.57    1041.00
102.67    1031.00
102.77    1004.00
102.87    1025.00
102.97     968.69
103.07     918.00
103.17     863.99
103.27     881.00
103.37     790.90
103.47     850.00
103.57     745.00
103.67     741.49
103.77     710.72
103.87     602.84
103.97     603.00
104.07     624.55
104.17     637.00
104.27     572.00
104.37     590.00
104.47     570.81
104.57     559.00
104.67     543.53
104.77     562.00
104.87     565.00
104.97     545.00
105.07     541.00
105.17     532.00
105.27     519.00
105.37     523.74
105.47     587.00
105.57     521.00
105.67     591.00
105.77     559.00
105.87     554.00
105.97     600.00
106.07     591.00
106.17     591.00
106.27     546.34
106.37     614.41
106.47     616.11
106.57     650.80
106.67     585.00
106.77     616.00
106.87     636.00
106.97     659.00
107.07     649.00
107.17     660.03
107.27     705.39
107.37     713.83
107.47     742.97
107.57     685.00
107.67     684.00
107.77     702.00
107.87     692.84
107.97     672.00
108.07     678.00
108.17     640.00
108.27     681.00
108.37     681.00
108.47     658.15
108.57     654.00
108.67     687.39
108.77     719.00
108.87     697.00
108.97     736.50
109.07     701.00
109.17     653.00
109.27     694.28
109.37     618.00
109.47     638.99
109.57     653.00
109.67     599.26
109.77     594.63
109.87     629.33
109.97     612.00
110.07     604.00
110.17     546.00
110.27     593.00
110.37     546.00
110.47     578.12
110.57     534.00
110.67     565.00
110.77     576.00
110.87     533.12
110.97     548.00
111.07     533.00
111.17     525.00
111.27     546.59
111.37     521.56
111.47     504.00
111.57     534.08
111.67     519.55
111.77     586.88
111.87     543.00
111.97     527.00
112.07     573.00
112.17     552.96
112.27     572.98
112.37     543.31
112.47     549.00
112.57     591.64
112.67     645.34
112.77     594.00
112.87     643.06
112.97     652.00
113.07     649.00
113.17     699.78
113.27     691.78
113.37     781.75
113.47     715.00
113.57     759.00
113.67     800.08
113.77     826.00
113.87     893.45
113.97     974.99
114.07    1020.22
114.17    1064.00
114.27    1140.00
114.37    1184.00
114.47    1283.00
114.57    1341.91
114.67    1622.00
114.77    1658.00
114.87    1837.13
114.97    2102.85
115.07    2364.00
115.17    2510.79
115.27    2854.26
115.37    3037.00
115.47    3399.00
115.57    3743.32
115.67    4113.00
115.77    4438.84
115.87    5029.47
115.97    5267.00
116.07    5724.00
116.17    5991.00
116.27    6360.70
116.37    6573.00
116.47    6768.92
116.57    6876.00
116.67    6785.00
116.77    6865.00
116.87    6934.00
116.97    6716.83
117.07    6456.00
117.17    6024.00
117.27    5660.67
117.37    5407.69
117.47    4893.00
117.57    4609.00
117.67    4212.00
117.77    3761.42
117.87    3381.94
117.97    3170.34
118.07    2936.00
118.17    2480.00
118.27    2206.00
118.37    2002.00
118.47    1811.00
118.57    1559.00
118.67    1413.00
118.77    1299.05
118.87    1095.57
118.97     986.00
119.07     982.00
119.17     917.66
119.27     889.74
119.37     806.00
119.47     742.00
119.57     721.00
119.67     651.50
119.77     615.00
119.87     673.00
119.97     609.81
120.07     638.00
120.17     596.00
120.27     634.90
120.37     550.14
120.47     573.00
120.57     617.95
120.67     568.00
120.77     569.00
120.87     572.00
120.97     605.45
121.07     547.29
121.17     554.00
121.27     558.00
121.37     574.00
121.47     589.00
121.57     628.14
121.67     597.00
121.77     604.00
121.87     637.00
121.97     560.50
122.07     656.00
122.17     619.00
122.27     642.00
122.37     679.00
122.47     684.00
122.57     651.00
122.67     609.00
122.77     633.21
122.87     612.00
122.97     651.00
123.07     645.00
123.17     655.00
123.27     664.87
123.37     606.00
123.47     630.00
123.57     681.00
123.67     653.00
123.77     627.00
123.87     623.14
123.97     663.00
124.07     602.00
124.17     567.25
124.27     668.00
124.37     624.00
124.47     561.00
124.57     614.00
124.67     614.11
124.77     588.25
124.87     598.00
124.97     551.76
