  9.97     600.00
 10.07     590.00
 10.17     543.11
 10.27     575.00
 10.37     526.57
 10.47     574.70
 10.57     566.00
 10.67     547.00
 10.77     525.93
 10.87     589.67
 10.97     613.05
 11.07     595.00
 11.17     577.00
 11.27     617.99
 11.37     571.00
 11.47     611.00
 11.57     672.00
 11.67     626.54
 11.77     633.00
 11.87     634.21
 11.97     686.00
 12.07     726.00
 12.17     663.00
 12.27     747.83
 12.37     702.12
 12.47     605.95
 12.57     577.00
 12.67     621.32
 12.77     590.00
 12.87     589.51
 12.97     537.00
 13.07     530.00
 13.17     544.00
 13.27     545.00
 13.37     608.00
 13.47     527.00
 13.57     543.00
 13.67     581.00
 13.77     554.00
 13.87     544.00
 13.97     593.00
 14.07     589.33
 14.17     581.15
 14.27     596.00
 14.37     589.00
 14.47     583.00
 14.57     544.00
 14.67     576.77
 14.77     608.04
 14.87     545.00
 14.97     548.00
 15.07     576.49
 15.17     572.08
 15.27     546.00
 15.37     586.61
 15.47     572.00
 15.57     580.00
 15.67     563.00
 15.77     558.00
 15.87     597.48
 15.97     556.00
 16.07     529.00
 16.17     607.84
 16.27     556.00
 16.37     558.00
 16.47     600.43
 16.57     560.00
 16.67     559.01
 16.77     543.00
 16.87     543.00
 16.97     605.67
 17.07     580.87
 17.17     522.85
 17.27     556.00
 17.37     538.00
 17.47     600.99
 17.57     593.38
 17.67     564.00
 17.77     541.00
 17.87     586.14
 17.97     550.00
 18.07     598.98
 18.17     565.00
 18.27     550.00
 18.37     565.00
 18.47     569.00
 18.57     565.00
 18.67     589.43
 18.77     538.00
 18.87     556.00
 18.97     582.00
 19.07     504.00
 19.17     533.00
 19.27     551.00
 19.37     600.33
 19.47     542.00
 19.57     511.77
 19.67     541.00
 19.77     566.00
 19.87     510.22
 19.97     518.00
 20.07     524.00
 20.17     528.00
 20.27     519.00
 20.37     592.10
 20.47     579.14
 20.57     576.24
 20.67     534.99
 20.77     612.00
 20.87     552.00
 20.97     489.00
 21.07     565.00
 21.17     516.74
 21.27     565.00
 21.37     545.43
 21.47     538.00
 21.57     574.33
 21.67     509.17
 21.77     554.00
 21.87     589.00
 21.97     585.70
 22.07     577.00
 22.17     575.00
 22.27     571.00
 22.37     543.00
 22.47     549.00
 22.57     542.00
 22.67     550.00
 22.77     536.00
 22.87     524.00
 22.97     528.59
 23.07     543.11
 23.17     537.00
 23.27     524.00
 23.37     577.00
 23.47     537.00
 23.57     545.00
 23.67     563.08
 23.77     575.00
 23.87     551.00
 23.97     568.29
 24.07     555.47
 24.17     505.52
 24.27     558.00
 24.37     578.00
 24.47     553.00
 24.57     599.81
 24.67     649.00
 24.77     638.00
 24.87     601.50
 24.97     619.00
 25.07     565.00
 25.17     541.00
 25.27     578.96
 25.37     540.00
 25.47     505.38
 25.57     579.13
 25.67     535.00
 25.77     529.00
 25.87     532.00
 25.97     563.08
 26.07     567.00
 26.17     534.00
 26.27     535.00
 26.37     554.15
 26.47     541.00
 26.57     538.00
 26.67     528.88
 26.77     557.86
 26.87     567.00
 26.97     552.04
 27.07     560.42
 27.17     565.00
 27.27     592.00
 27.37     550.00
 27.47     582.93
 27.57     533.59
 27.67     537.00
 27.77     586.00
 27.87     588.00
 27.97     631.57
 28.07     784.00
 28.17     849.36
 28.27     968.29
 28.37     944.80
 28.47     750.49
 28.57     703.00
 28.67     698.00
 28.77     691.01
 28.87     761.98
 28.97     834.07
 29.07     784.00
 29.17     724.43
 29.27     654.00
 29.37     596.00
 29.47     586.00
 29.57     606.00
 29.67     597.00
 29.77     577.00
 29.87     547.00
 29.97     578.00
 30.07     527.80
 30.17     545.00
 30.27     600.00
 30.37     572.96
 30.47     553.92
 30.57     604.00
 30.67     599.00
 30.77     588.00
 30.87     585.80
 30.97     620.00
 31.07     600.00
 31.17     594.00
 31.27     564.00
 31.37     533.00
 31.47     551.00
 31.57     546.00
 31.67     529.71
 31.77     483.28
 31.87     543.00
 31.97     564.94
 32.07     482.91
 32.17     513.61
 32.27     568.00
 32.37     523.00
 32.47     528.65
 32.57     518.00
 32.67     555.35
 32.77     500.00
 32.87     578.00
 32.97     536.99
 33.07     528.00
 33.17     546.00
 33.27     532.00
 33.37     611.00
 33.47     582.33
 33.57     583.11
 33.67     658.00
 33.77     750.00
 33.87     935.00
 33.97     997.66
 34.07    1115.00
 34.17    1070.65
 34.27     969.00
 34.37     765.00
 34.47     621.00
 34.57     603.00
 34.67     551.66
 34.77     552.00
 34.87     563.00
 34.97     526.00
 35.07     555.62
 35.17     541.00
 35.27     523.41
 35.37     514.00
 35.47     480.56
 35.57     488.00
 35.67     492.00
 35.77     526.00
 35.87     471.72
 35.97     483.86
 36.07     555.00
 36.17     541.67
 36.27     506.00
 36.37     521.32
 36.47     517.00
 36.57     517.31
 36.67     487.37
 36.77     511.00
 36.87     515.00
 36.97     551.71
 37.07     502.00
 37.17     478.65
 37.27     504.00
 37.37     546.64
 37.47     501.85
 37.57     526.00
 37.67     534.00
 37.77     572.00
 37.87     516.18
 37.97     549.00
 38.07     548.00
 38.17     494.43
 38.27     520.79
 38.37     520.36
 38.47     491.00
 38.57     502.00
 38.67     510.00
 38.77     497.00
 38.87     496.00
 38.97     531.93
 39.07     527.00
 39.17     468.00
 39.27     542.39
 39.37     504.00
 39.47     502.00
 39.57     554.00
 39.67     533.23
 39.77     516.00
 39.87     478.00
 39.97     538.56
 40.07     476.00
 40.17     510.00
 40.27     488.00
 40.37     525.00
 40.47     516.17
 40.57     495.00
 40.67     515.00
 40.77     475.00
 40.87     500.00
 40.97     489.00
 41.07     483.00
 41.17     486.00
 41.27     529.55
 41.37     507.31
 41.47     489.00
 41.57     540.30
 41.67     463.90
 41.77     524.90
 41.87     529.00
 41.97     469.00
 42.07     546.74
 42.17     504.00
 42.27     537.00
 42.37     505.00
 42.47     564.00
 42.57     600.00
 42.67     653.00
 42.77     645.09
 42.87     585.00
 42.97     590.00
 43.07     596.22
 43.17     506.27
 43.27     540.00
 43.37     527.40
 43.47     545.71
 43.57     543.67
 43.67     502.00
 43.77     521.00
 43.87     511.17
 43.97     516.73
 44.07     520.00
 44.17     468.00
 44.27     528.00
 44.37     527.00
 44.47     511.00
 44.57     489.45
 44.67     444.00
 44.77     511.00
 44.87     480.00
 44.97     511.00
 45.07     462.00
 45.17     514.00
 45.27     560.00
 45.37     485.00
 45.47     534.00
 45.57     501.00
 45.67     496.00
 45.77     514.19
 45.87     482.00
 45.97     539.51
 46.07     500.00
 46.17     524.44
 46.27     448.00
 46.37     479.00
 46.47     547.00
 46.57     476.00
 46.67     473.15
 46.77     494.00
 46.87     494.00
 46.97     513.70
 47.07     526.00
 47.17     487.34
 47.27     532.00
 47.37     546.00
 47.47     525.00
 47.57     507.00
 47.67     594.10
 47.77     596.00
 47.87     634.00
 47.97     551.00
 48.07     591.62
 48.17     559.00
 48.27     555.00
 48.37     531.54
 48.47     559.03
 48.57     531.00
 48.67     516.00
 48.77     572.00
 48.87     521.00
 48.97     514.28
 49.07     561.00
 49.17     567.00
 49.27     605.00
 49.37     624.50
 49.47     676.00
 49.57     737.25
 49.67     925.00
 49.77    1127.65
 49.87    1440.00
 49.97    1807.00
 50.07    2188.00
 50.17    2516.00
 50.27    2397.00
 50.37    2249.25
 50.47    1832.45
 50.57    1364.00
 50.67    1043.00
 50.77     866.40
 50.87     721.00
 50.97     640.00
 51.07     598.00
 51.17     649.25
 51.27     600.00
 51.37     606.00
 51.47     540.29
 51.57     559.00
 51.67     533.00
 51.77     568.00
 51.87     582.00
 51.97     565.00
 52.07     508.73
 52.17     542.00
 52.27     553.88
 52.37     510.00
 52.47     529.00
 52.57     570.64
 52.67     603.00
 52.77     601.00
 52.87     660.00
 52.97     723.00
 53.07     801.00
 53.17     872.06
 53.27    1017.40
 53.37    1159.00
 53.47    1244.45
 53.57    1146.00
 53.67    1146.00
 53.77     953.00
 53.87     900.96
 53.97     805.08
 54.07     661.00
 54.17     658.17
 54.27     544.39
 54.37     565.00
 54.47     555.00
 54.57     535.00
 54.67     555.00
 54.77     541.65
 54.87     544.36
 54.97     595.00
 55.07     589.26
 55.17     578.00
 55.27     556.48
 55.37     510.28
 55.47     533.00
 55.57     595.00
 55.67     549.00
 55.77     565.00
 55.87     585.97
 55.97     644.00
 56.07     651.00
 56.17     779.10
 56.27     919.00
 56.37    1130.00
 56.47    1385.73
 56.57    1761.31
 56.67    2206.67
 56.77    2443.00
 56.87    2770.61
 56.97    2560.00
 57.07    2393.00
 57.17    1981.00
 57.27    1689.00
 57.37    1265.00
 57.47    1029.00
 57.57     864.00
 57.67     770.00
 57.77     743.00
 57.87     619.26
 57.97     642.00
 58.07     656.68
 58.17     738.62
 58.27     803.38
 58.37     812.33
 58.47     907.71
 58.57    1093.23
 58.67    1206.86
 58.77    1277.00
 58.87    1387.00
 58.97    1419.65
 59.07    1451.40
 59.17    1443.00
 59.27    1329.70
 59.37    1373.00
 59.47    1301.00
 59.57    1099.54
 59.67    1147.00
 59.77    1201.00
 59.87    1304.00
 59.97    1338.00
 60.07    1466.00
 60.17    1600.00
 60.27    1530.00
 60.37    1568.10
 60.47    1419.40
 60.57    1265.19
 60.67    1044.68
 60.77     927.00
 60.87     746.26
 60.97     661.22
 61.07     667.00
 61.17     583.00
 61.27     594.00
 61.37     635.00
 61.47     714.00
 61.57     788.00
 61.67     809.95
 61.77     972.00
 61.87    1096.00
 61.97    1267.00
 62.07    1412.00
 62.17    1452.75
 62.27    1321.00
 62.37    1316.39
 62.47    1223.00
 62.57    1118.87
 62.67     867.00
 62.77     811.39
 62.87     701.00
 62.97     695.30
 63.07     651.75
 63.17     601.00
 63.27     575.00
 63.37     574.00
 63.47     578.00
 63.57     575.41
 63.67     574.00
 63.77     541.19
 63.87     645.43
 63.97     703.00
 64.07     683.04
 64.17     782.00
 64.27     847.00
 64.37     917.00
 64.47     953.00
 64.57     983.00
 64.67    1053.00
 64.77     979.86
 64.87    1030.00
 64.97     927.00
 65.07     864.00
 65.17     769.00
 65.27     676.00
 65.37     693.02
 65.47     658.00
 65.57     618.00
 65.67     652.85
 65.77     614.90
 65.87     588.56
 65.97     584.61
 66.07     574.00
 66.17     522.00
 66.27     519.71
 66.37     603.84
 66.47     577.00
 66.57     567.92
 66.67     529.01
 66.77     541.40
 66.87     593.67
 66.97     615.00
 67.07     621.00
 67.17     675.00
 67.27     742.00
 67.37     901.32
 67.47    1109.00
 67.57    1254.00
 67.67    1500.47
 67.77    1862.63
 67.87    2121.34
 67.97    2285.00
 68.07    2415.00
 68.17    2373.00
 68.27    2218.00
 68.37    2070.00
 68.47    1767.43
 68.57    1482.00
 68.67    1268.00
 68.77    1008.00
 68.87     940.26
 68.97     757.00
 69.07     783.00
 69.17     617.28
 69.27     643.00
 69.37     610.00
 69.47     613.00
 69.57     543.52
 69.67     564.00
 69.77     537.78
 69.87     586.00
 69.97     538.03
 70.07     600.37
 70.17     580.00
 70.27     563.00
 70.37     559.00
 70.47     612.00
 70.57     567.00
 70.67     547.84
 70.77     564.00
 70.87     574.00
 70.97     613.00
 71.07     686.00
 71.17     742.00
 71.27     804.00
 71.37     947.60
 71.47    1103.00
 71.57    1236.00
 71.67    1475.35
 71.77    1603.00
 71.87    1806.00
 71.97    1932.00
 72.07    1957.17
 72.17    1815.57
 72.27    1792.00
 72.37    1589.81
 72.47    1513.00
 72.57    1335.06
 72.67    1131.00
 72.77    1106.51
 72.87     953.74
 72.97     830.95
 73.07     736.00
 73.17     766.68
 73.27     668.00
 73.37     671.00
 73.47     617.24
 73.57     570.00
 73.67     593.68
 73.77     635.00
 73.87     590.12
 73.97     584.00
 74.07     589.00
 74.17     612.00
 74.27     558.93
 74.37     611.99
 74.47     672.00
 74.57     645.00
 74.67     578.00
 74.77     623.00
 74.87     534.28
 74.97     536.39
 75.07     601.00
 75.17     566.00
 75.27     591.00
 75.37     553.00
 75.47     510.00
 75.57     519.95
 75.67     609.62
 75.77     600.43
 75.87     586.52
 75.97     599.00
 76.07     667.59
 76.17     646.00
 76.27     655.00
 76.37     678.00
 76.47     750.95
 76.57     719.00
 76.67     696.00
 76.77     692.00
 76.87     671.00
 76.97     618.00
 77.07     589.00
 77.17     646.53
 77.27     594.57
 77.37     569.00
 77.47     527.00
 77.57     547.00
 77.67     513.80
 77.77     574.15
 77.87     530.03
 77.97     534.26
 78.07     539.00
 78.17     514.00
 78.27     524.00
 78.37     524.69
 78.47     499.00
 78.57     508.00
 78.67     524.00
 78.77     491.50
 78.87     509.26
 78.97     506.00
 79.07     488.00
 79.17     565.95
 79.27     526.00
 79.37     531.00
 79.47     516.00
 79.57     508.00
 79.67     571.00
 79.77     517.79
 79.87     519.00
 79.97     561.80
 80.07     493.00
 80.17     558.55
 80.27     566.00
 80.37     566.00
 80.47     571.00
 80.57     627.19
 80.67     608.00
 80.77     611.00
 80.87     700.29
 80.97     697.00
 81.07     687.00
 81.17     671.00
 81.27     714.00
 81.37     735.06
 81.47     788.00
 81.57     715.00
 81.67     738.97
 81.77     769.38
 81.87     727.00
 81.97     712.52
 82.07     705.00
 82.17     639.00
 82.27     687.00
 82.37     604.00
 82.47     636.00
 82.57     584.00
 82.67     593.00
 82.77     540.71
 82.87     558.00
 82.97     597.75
 83.07     536.00
 83.17     562.00
 83.27     518.90
 83.37     551.19
 83.47     532.14
 83.57     541.25
 83.67     604.00
 83.77     555.00
 83.87     535.00
 83.97     574.00
 84.07     605.84
 84.17     603.10
 84.27     577.00
 84.37     575.00
 84.47     582.00
 84.57     562.00
 84.67     507.84
 84.77     533.00
 84.87     532.00
 84.97     550.00
 85.07     518.00
 85.17     569.00
 85.27     574.00
 85.37     556.00
 85.47     549.00
 85.57     517.00
 85.67     480.00
 85.77     531.00
 85.87     542.00
 85.97     517.00
 86.07     531.00
 86.17     563.00
 86.27     524.00
 86.37     550.05
 86.47     537.44
 86.57     560.00
 86.67     589.00
 86.77     534.12
 86.87     600.00
 86.97     579.00
 87.07     618.00
 87.17     624.03
 87.27     588.85
 87.37     643.13
 87.47     681.00
 87.57     655.00
 87.67     667.89
 87.77     645.15
 87.87     665.00
 87.97     635.00
 88.07     568.64
 88.17     546.00
 88.27     597.00
 88.37     592.00
 88.47     580.27
 88.57     542.00
 88.67     560.00
 88.77     603.00
 88.87     552.89
 88.97     580.56
 89.07     578.00
 89.17     606.00
 89.27     593.38
 89.37     592.00
 89.47     634.00
 89.57     548.00
 89.67     594.00
 89.77     600.00
 89.87     561.00
 89.97     539.00
 90.07     556.09
 90.17     558.81
 90.27     512.16
 90.37     519.92
 90.47     547.47
 90.57     566.72
 90.67     528.00
 90.77     537.00
 90.87     519.02
 90.97     522.00
 91.07     513.43
 91.17     566.00
 91.27     510.00
 91.37     522.55
 91.47     506.00
 91.57     484.00
 91.67     537.00
 91.77     525.00
 91.87     584.00
 91.97     544.00
 92.07     571.00
 92.17     577.70
 92.27     536.00
 92.37     580.00
 92.47     581.30
 92.57     590.00
 92.67     654.26
 92.77     657.65
 92.87     764.00
 92.97     704.00
 93.07     704.15
 93.17     750.00
 93.27     756.00
 93.37     777.00
 93.47     758.12
 93.57     848.00
 93.67     810.23
 93.77     802.90
 93.87     848.00
 93.97     828.37
 94.07     847.00
 94.17     836.40
 94.27     798.91
 94.37     886.00
 94.47     814.35
 94.57     898.00
 94.67     952.00
 94.77     958.00
 94.87     904.00
 94.97     942.00
 95.07     816.38
 95.17     830.22
 95.27     882.00
 95.37     782.82
 95.47     808.43
 95.57     794.00
 95.67     677.00
 95.77     645.95
 95.87     688.00
 95.97     720.00
 96.07     717.00
 96.17     722.75
 96.27     729.56
 96.37     795.00
 96.47     815.00
 96.57     841.00
 96.67     926.00
 96.77     994.06
 96.87    1036.09
 96.97    1196.00
 97.07    1252.00
 97.17    1292.12
 97.27    1332.00
 97.37    1344.00
 97.47    1450.00
 97.57    1447.00
 97.67    1445.40
 97.77    1430.00
 97.87    1283.00
 97.97    1271.00
 98.07    1256.67
 98.17    1187.00
 98.27    1055.00
 98.37    1054.00
 98.47     936.31
 98.57     886.00
 98.67     855.00
 98.77     759.00
 98.87     786.00
 98.97     833.00
 99.07     776.00
 99.17     884.04
 99.27     857.00
 99.37     972.00
 99.47    1060.00
 99.57    1060.00
 99.67    1168.00
 99.77    1283.45
 99.87    1426.74
 99.97    1563.00
100.07    1667.00
100.17    1654.51
100.27    1941.00
100.37    1928.44
100.47    2010.71
100.57    2041.00
100.67    2110.89
100.77    2046.09
100.87    2119.00
100.97    2087.00
101.07    2030.48
101.17    1818.08
101.27    1872.83
101.37    1713.00
101.47    1565.00
101.57    1541.62
101.67    1390.00
101.77    1350.00
101.87    1337.19
101.97    1226.00
102.07    1254.60
102.17    1142.00
102.27    1153.00
102.37    1158.00
102.47    1107.03
102.57    1106.00
102.67    1027.00
102.77     985.00
102.87     973.00
102.97     973.63
103.07     912.56
103.17     885.00
103.27     831.00
103.37     781.00
103.47     788.00
103.57     757.00
103.67     707.00
103.77     666.65
103.87     635.00
103.97     626.00
104.07     584.88
104.17     625.00
104.27     581.00
104.37     608.00
104.47     541.00
104.57     586.82
104.67     508.02
104.77     504.29
104.87     565.00
104.97     546.00
105.07     524.00
105.17     575.00
105.27     567.00
105.37     578.33
105.47     551.00
105.57     531.88
105.67     599.00
105.77     578.00
105.87     621.00
105.97     522.00
106.07     603.60
106.17     571.56
106.27     574.14
106.37     588.14
106.47     576.00
106.57     612.00
106.67     629.00
106.77     675.40
106.87     674.00
106.97     638.26
107.07     723.00
107.17     688.20
107.27     705.00
107.37     685.00
107.47     688.00
107.57     667.71
107.67     731.78
107.77     660.00
107.87     729.62
107.97     711.00
108.07     688.48
108.17     740.25
108.27     714.04
108.37     677.00
108.47     677.00
108.57     699.18
108.67     716.00
108.77     683.00
108.87     687.00
108.97     725.76
109.07     727.00
109.17     685.03
109.27     672.00
109.37     635.00
109.47     666.00
109.57     607.00
109.67     620.00
109.77     597.00
109.87     623.00
109.97     634.00
110.07     532.00
110.17     601.00
110.27     562.90
110.37     560.54
110.47     557.00
110.57     546.00
110.67     522.00
110.77     521.52
110.87     546.00
110.97     520.00
111.07     508.99
111.17     496.71
111.27     494.21
111.37     562.00
111.47     535.00
111.57     565.00
111.67     526.00
111.77     577.00
111.87     542.96
111.97     627.00
112.07     561.00
112.17     572.00
112.27     603.00
112.37     556.48
112.47     575.00
112.57     591.00
112.67     652.00
112.77     688.00
112.87     639.00
112.97     706.23
113.07     665.00
113.17     683.00
113.27     659.00
113.37     694.00
113.47     722.00
113.57     802.00
113.67     795.00
113.77     813.00
113.87     844.00
113.97     864.00
114.07     953.00
114.17    1093.19
114.27    1101.00
114.37    1187.00
114.47    1323.65
114.57    1381.00
114.67    1523.00
114.77    1692.00
114.87    1923.00
114.97    2039.84
115.07    2210.03
115.17    2616.00
115.27    2873.00
115.37    3088.40
115.47    3418.74
115.57    3765.74
115.67    4230.00
115.77    4440.54
115.87    4806.00
115.97    5264.00
116.07    5617.00
116.17    5934.06
116.27    6262.82
116.37    6579.00
116.47    6777.78
116.57    6888.65
116.67    6873.97
116.77    6981.00
116.87    6858.56
116.97    6557.96
117.07    6371.81
117.17    6227.53
117.27    5815.39
117.37    5336.34
117.47    4956.00
117.57    4589.00
117.67    4374.42
117.77    3860.64
117.87    3575.00
117.97    3221.00
118.07    2975.00
118.17    2566.93
118.27    2257.00
118.37    2094.93
118.47    1779.28
118.57    1499.00
118.67    1499.41
118.77    1259.00
118.87    1198.40
118.97    1037.00
119.07     900.00
119.17     934.35
119.27     825.04
119.37     756.17
119.47     781.29
119.57     671.48
119.67     669.00
119.77     667.00
119.87     618.00
119.97     616.00
120.07     590.00
120.17     619.06
120.27     594.00
120.37     614.03
120.47     603.00
120.57     554.00
120.67     580.68
120.77     563.46
120.87     563.00
120.97     521.00
121.07     569.00
121.17     571.00
121.27     576.49
121.37     579.00
121.47     608.00
121.57     620.81
121.67     604.00
121.77     632.67
121.87     579.00
121.97     651.00
122.07     572.56
122.17     602.00
122.27     633.00
122.37     661.36
122.47     643.00
122.57     621.00
122.67     566.00
122.77     691.00
122.87     676.60
122.97     589.18
123.07     637.00
123.17     617.85
123.27     647.46
123.37     644.51
123.47     649.00
123.57     653.00
123.67     573.00
123.77     619.00
123.87     639.00
123.97     647.21
124.07     600.64
124.17     579.30
124.27     605.00
124.37     613.02
124.47     587.00
124.57     583.00
124.67     578.00
124.77     537.89
124.87     645.00
124.97     561.00
