  9.97     670.00
 10.07     703.00
 10.17     688.00
 10.27     655.50
 10.37     646.00
 10.47     651.06
 10.57     698.00
 10.67     681.00
 10.77     635.00
 10.87     667.00
 10.97     660.25
 11.07     684.00
 11.17     693.64
 11.27     660.00
 11.37     648.83
 11.47     657.15
 11.57     671.00
 11.67     720.00
 11.77     737.00
 11.87     706.00
 11.97     638.41
 12.07     827.00
 12.17     780.00
 12.27     835.47
 12.37     772.00
 12.47     765.00
 12.57     726.00
 12.67     642.01
 12.77     661.76
 12.87     633.00
 12.97     641.78
 13.07     689.05
 13.17     607.00
 13.27     620.00
 13.37     639.00
 13.47     619.00
 13.57     603.79
 13.67     673.89
 13.77     664.00
 13.87     620.00
 13.97     623.00
 14.07     597.00
 14.17     658.00
 14.27     562.00
 14.37     589.15
 14.47     618.00
 14.57     594.00
 14.67     672.00
 14.77     612.00
 14.87     591.00
 14.97     615.00
 15.07     582.46
 15.17     594.00
 15.27     625.00
 15.37     612.00
 15.47     616.73
 15.57     576.00
 15.67     649.27
 15.77     608.00
 15.87     582.00
 15.97     581.19
 16.07     627.00
 16.17     635.00
 16.27     621.00
 16.37     566.00
 16.47     654.98
 16.57     618.00
 16.67     608.00
 16.77     609.00
 16.87     667.41
 16.97     599.00
 17.07     652.00
 17.17     630.00
 17.27     575.28
 17.37     597.09
 17.47     574.16
 17.57     585.00
 17.67     620.00
 17.77     565.00
 17.87     624.22
 17.97     616.00
 18.07     595.00
 18.17     629.00
 18.27     627.00
 18.37     617.07
 18.47     563.00
 18.57     622.00
 18.67     618.00
 18.77     586.81
 18.87     600.00
 18.97     590.00
 19.07     596.00
 19.17     626.00
 19.27     648.78
 19.37     615.00
 19.47     578.00
 19.57     600.00
 19.67     559.00
 19.77     658.22
 19.87     604.00
 19.97     623.00
 20.07     604.00
 20.17     606.80
 20.27     573.22
 20.37     603.00
 20.47     612.00
 20.57     630.00
 20.67     593.00
 20.77     538.00
 20.87     598.64
 20.97     614.00
 21.07     602.00
 21.17     609.60
 21.27     594.00
 21.37     644.54
 21.47     551.00
 21.57     635.89
 21.67     561.00
 21.77     646.07
 21.87     592.00
 21.97     567.62
 22.07     641.04
 22.17     587.00
 22.27     590.00
 22.37     569.46
 22.47     592.00
 22.57     612.00
 22.67     576.00
 22.77     612.80
 22.87     559.00
 22.97     614.00
 23.07     623.04
 23.17     609.00
 23.27     633.00
 23.37     617.00
 23.47     613.00
 23.57     554.00
 23.67     604.86
 23.77     646.00
 23.87     596.00
 23.97     564.21
 24.07     592.00
 24.17     605.00
 24.27     636.00
 24.37     633.00
 24.47     574.85
 24.57     690.00
 24.67     678.00
 24.77     713.00
 24.87     735.00
 24.97     707.53
 25.07     625.50
 25.17     667.00
 25.27     655.00
 25.37     649.00
 25.47     640.94
 25.57     609.00
 25.67     633.00
 25.77     617.00
 25.87     618.00
 25.97     651.00
 26.07     628.00
 26.17     561.53
 26.27     596.28
 26.37     600.00
 26.47     619.57
 26.57     635.56
 26.67     617.65
 26.77     589.96
 26.87     615.00
 26.97     666.00
 27.07     613.00
 27.17     658.54
 27.27     696.17
 27.37     712.00
 27.47     711.00
 27.57     754.00
 27.67     767.00
 27.77     781.00
 27.87     937.10
 27.97    1115.26
 28.07    1622.09
 28.17    2350.54
 28.27    3270.00
 28.37    3872.00
 28.47    3893.00
 28.57    3166.00
 28.67    2312.00
 28.77    2009.00
 28.87    1926.00
 28.97    2110.72
 29.07    2423.00
 29.17    2323.00
 29.27    1848.88
 29.37    1512.00
 29.47    1204.00
 29.57     936.65
 29.67     860.00
 29.77     754.00
 29.87     695.10
 29.97     721.00
 30.07     726.00
 30.17     602.69
 30.27     641.55
 30.37     675.00
 30.47     630.00
 30.57     706.00
 30.67     651.00
 30.77     692.00
 30.87     651.32
 30.97     731.00
 31.07     735.00
 31.17     680.39
 31.27     706.00
 31.37     637.21
 31.47     654.35
 31.57     612.00
 31.67     630.00
 31.77     598.00
 31.87     574.23
 31.97     591.00
 32.07     556.57
 32.17     577.06
 32.27     551.89
 32.37     536.98
 32.47     576.00
 32.57     628.00
 32.67     530.71
 32.77     606.00
 32.87     611.00
 32.97     610.00
 33.07     629.00
 33.17     634.00
 33.27     619.00
 33.37     628.00
 33.47     622.42
 33.57     663.00
 33.67     634.01
 33.77     699.00
 33.87     733.86
 33.97     844.00
 34.07     953.98
 34.17    1024.94
 34.27    1104.00
 34.37    1040.67
 34.47     943.42
 34.57     780.75
 34.67     776.00
 34.77     665.12
 34.87     650.75
 34.97     663.00
 35.07     589.96
 35.17     583.00
 35.27     628.00
 35.37     524.00
 35.47     529.18
 35.57     558.00
 35.67     594.52
 35.77     537.00
 35.87     560.00
 35.97     556.00
 36.07     536.00
 36.17     590.50
 36.27     584.00
 36.37     570.00
 36.47     545.00
 36.57     566.10
 36.67     537.06
 36.77     588.00
 36.87     547.00
 36.97     536.00
 37.07     549.00
 37.17     556.28
 37.27     526.66
 37.37     570.00
 37.47     543.50
 37.57     548.00
 37.67     586.00
 37.77     545.00
 37.87     577.00
 37.97     638.97
 38.07     599.00
 38.17     614.00
 38.27     620.00
 38.37     619.00
 38.47     650.81
 38.57     592.00
 38.67     558.97
 38.77     543.00
 38.87     511.00
 38.97     548.13
 39.07     536.18
 39.17     519.00
 39.27     508.06
 39.37     551.00
 39.47     528.40
 39.57     559.00
 39.67     559.00
 39.77     554.00
 39.87     530.83
 39.97     557.00
 40.07     540.00
 40.17     573.58
 40.27     509.87
 40.37     510.00
 40.47     522.43
 40.57     587.00
 40.67     537.00
 40.77     553.12
 40.87     596.33
 40.97     571.00
 41.07     516.04
 41.17     509.00
 41.27     540.00
 41.37     499.00
 41.47     536.00
 41.57     594.44
 41.67     525.00
 41.77     589.86
 41.87     528.00
 41.97     540.00
 42.07     539.00
 42.17     551.00
 42.27     519.63
 42.37     577.00
 42.47     544.00
 42.57     595.14
 42.67     583.68
 42.77     604.00
 42.87     620.00
 42.97     615.00
 43.07     675.13
 43.17     673.93
 43.27     583.92
 43.37     615.53
 43.47     560.00
 43.57     528.00
 43.67     550.38
 43.77     580.00
 43.87     564.00
 43.97     574.00
 44.07     581.69
 44.17     575.28
 44.27     537.00
 44.37     557.00
 44.47     541.77
 44.57     574.26
 44.67     587.59
 44.77     548.00
 44.87     546.00
 44.97     562.00
 45.07     598.68
 45.17     531.79
 45.27     541.89
 45.37     532.00
 45.47     545.00
 45.57     520.75
 45.67     577.69
 45.77     526.00
 45.87     564.62
 45.97     502.28
 46.07     536.00
 46.17     548.00
 46.27     571.00
 46.37     583.00
 46.47     523.38
 46.57     534.00
 46.67     544.00
 46.77     509.08
 46.87     557.00
 46.97     567.00
 47.07     521.85
 47.17     581.29
 47.27     603.40
 47.37     562.00
 47.47     582.00
 47.57     562.00
 47.67     580.00
 47.77     558.62
 47.87     576.09
 47.97     628.00
 48.07     670.00
 48.17     589.40
 48.27     651.64
 48.37     638.00
 48.47     641.42
 48.57     581.00
 48.67     589.25
 48.77     549.00
 48.87     642.00
 48.97     564.20
 49.07     563.00
 49.17     584.38
 49.27     582.00
 49.37     596.00
 49.47     675.68
 49.57     639.39
 49.67     689.00
 49.77     771.00
 49.87     892.00
 49.97    1157.00
 50.07    1439.00
 50.17    1846.30
 50.27    2162.00
 50.37    2511.00
 50.47    2771.16
 50.57    2669.00
 50.67    2248.00
 50.77    1891.00
 50.87    1486.00
 50.97    1217.33
 51.07     966.00
 51.17     793.34
 51.27     767.32
 51.37     728.00
 51.47     700.00
 51.57     651.36
 51.67     668.00
 51.77     656.00
 51.87     648.00
 51.97     616.45
 52.07     571.81
 52.17     621.00
 52.27     600.00
 52.37     673.00
 52.47     649.89
 52.57     637.00
 52.67     560.24
 52.77     654.00
 52.87     679.00
 52.97     663.00
 53.07     626.11
 53.17     746.00
 53.27     789.00
 53.37     817.00
 53.47     903.00
 53.57    1099.00
 53.67    1171.00
 53.77    1231.00
 53.87    1201.58
 53.97    1267.00
 54.07    1106.00
 54.17    1044.09
 54.27     946.00
 54.37     772.50
 54.47     719.04
 54.57     750.45
 54.67     649.00
 54.77     661.00
 54.87     650.00
 54.97     638.00
 55.07     659.00
 55.17     639.01
 55.27     644.00
 55.37     638.56
 55.47     639.00
 55.57     617.88
 55.67     649.00
 55.77     610.00
 55.87     632.00
 55.97     692.00
 56.07     641.00
 56.17     777.00
 56.27     715.95
 56.37     796.87
 56.47     892.52
 56.57    1035.00
 56.67    1207.00
 56.77    1528.00
 56.87    1910.00
 56.97    2244.00
 57.07    2509.00
 57.17    2626.00
 57.27    2616.00
 57.37    2377.00
 57.47    2096.00
 57.57    1794.00
 57.67    1455.00
 57.77    1211.00
 57.87     977.00
 57.97     838.00
 58.07     803.00
 58.17     721.95
 58.27     776.41
 58.37     744.00
 58.47     758.00
 58.57     797.98
 58.67     897.00
 58.77     924.00
 58.87    1038.67
 58.97    1097.62
 59.07    1170.00
 59.17    1261.00
 59.27    1233.05
 59.37    1284.00
 59.47    1258.00
 59.57    1195.13
 59.67    1213.00
 59.77    1148.00
 59.87    1136.00
 59.97    1165.32
 60.07    1147.24
 60.17    1316.02
 60.27    1377.00
 60.37    1456.00
 60.47    1615.00
 60.57    1612.00
 60.67    1559.32
 60.77    1409.00
 60.87    1395.00
 60.97    1212.00
 61.07    1101.00
 61.17     910.47
 61.27     833.00
 61.37     767.03
 61.47     772.41
 61.57     769.00
 61.67     754.96
 61.77     843.00
 61.87     886.00
 61.97     934.00
 62.07    1018.00
 62.17    1146.35
 62.27    1260.83
 62.37    1476.11
 62.47    1513.13
 62.57    1503.46
 62.67    1439.00
 62.77    1396.03
 62.87    1091.00
 62.97    1070.48
 63.07     940.00
 63.17     766.00
 63.27     669.00
 63.37     692.00
 63.47     658.00
 63.57     705.00
 63.67     667.00
 63.77     636.76
 63.87     633.58
 63.97     699.00
 64.07     732.00
 64.17     679.81
 64.27     713.00
 64.37     820.00
 64.47     848.70
 64.57     912.00
 64.67     918.18
 64.77    1111.82
 64.87    1267.00
 64.97    1314.00
 65.07    1256.00
 65.17    1297.00
 65.27    1126.79
 65.37    1067.00
 65.47    1045.00
 65.57     914.00
 65.67     859.00
 65.77     821.00
 65.87     759.00
 65.97     711.00
 66.07     714.00
 66.17     697.45
 66.27     699.00
 66.37     643.00
 66.47     633.00
 66.57     611.00
 66.67     603.24
 66.77     626.91
 66.87     624.00
 66.97     613.00
 67.07     645.87
 67.17     653.70
 67.27     664.00
 67.37     680.64
 67.47     785.00
 67.57     797.00
 67.67     906.00
 67.77    1052.08
 67.87    1225.00
 67.97    1441.00
 68.07    1723.00
 68.17    2015.24
 68.27    2255.49
 68.37    2306.00
 68.47    2495.00
 68.57    2377.00
 68.67    2361.00
 68.77    2179.00
 68.87    1911.00
 68.97    1627.00
 69.07    1423.00
 69.17    1259.00
 69.27     993.00
 69.37     825.00
 69.47     817.00
 69.57     778.00
 69.67     673.46
 69.77     664.00
 69.87     678.00
 69.97     629.65
 70.07     589.90
 70.17     584.63
 70.27     629.00
 70.37     671.02
 70.47     613.00
 70.57     625.74
 70.67     627.93
 70.77     662.00
 70.87     649.63
 70.97     630.00
 71.07     672.06
 71.17     660.00
 71.27     701.00
 71.37     701.49
 71.47     730.00
 71.57     797.76
 71.67     892.00
 71.77    1025.00
 71.87    1132.00
 71.97    1349.00
 72.07    1569.00
 72.17    1621.00
 72.27    1758.00
 72.37    1951.00
 72.47    1862.00
 72.57    1884.00
 72.67    1715.58
 72.77    1662.65
 72.87    1399.00
 72.97    1325.27
 73.07    1246.91
 73.17     999.70
 73.27     941.00
 73.37     808.57
 73.47     810.00
 73.57     709.00
 73.67     637.00
 73.77     630.39
 73.87     633.77
 73.97     581.00
 74.07     650.30
 74.17     627.00
 74.27     630.00
 74.37     596.04
 74.47     609.00
 74.57     648.00
 74.67     599.08
 74.77     646.00
 74.87     621.00
 74.97     648.00
 75.07     696.00
 75.17     648.00
 75.27     650.28
 75.37     656.00
 75.47     638.25
 75.57     676.00
 75.67     637.00
 75.77     640.00
 75.87     648.00
 75.97     653.00
 76.07     566.72
 76.17     625.03
 76.27     662.00
 76.37     668.00
 76.47     703.16
 76.57     702.15
 76.67     771.00
 76.77     782.00
 76.87     781.00
 76.97     875.00
 77.07     856.00
 77.17     806.00
 77.27     809.56
 77.37     786.00
 77.47     705.00
 77.57     715.00
 77.67     658.00
 77.77     635.00
 77.87     677.64
 77.97     590.78
 78.07     616.00
 78.17     618.00
 78.27     572.00
 78.37     610.00
 78.47     611.36
 78.57     581.44
 78.67     582.76
 78.77     552.00
 78.87     517.98
 78.97     563.74
 79.07     566.00
 79.17     550.00
 79.27     570.00
 79.37     530.41
 79.47     544.00
 79.57     579.42
 79.67     551.00
 79.77     584.20
 79.87     535.61
 79.97     537.12
 80.07     558.45
 80.17     613.69
 80.27     599.63
 80.37     659.36
 80.47     597.60
 80.57     681.70
 80.67     645.55
 80.77     699.00
 80.87     741.00
 80.97     744.26
 81.07     825.46
 81.17     875.00
 81.27     931.62
 81.37     946.59
 81.47    1007.00
 81.57     950.43
 81.67     990.00
 81.77    1022.00
 81.87     999.00
 81.97     961.00
 82.07     982.32
 82.17     845.84
 82.27     893.00
 82.37     839.00
 82.47     808.00
 82.57     743.00
 82.67     734.00
 82.77     686.91
 82.87     687.00
 82.97     659.00
 83.07     632.00
 83.17     628.01
 83.27     642.00
 83.37     583.25
 83.47     582.70
 83.57     628.32
 83.67     546.00
 83.77     559.00
 83.87     625.02
 83.97     583.00
 84.07     584.47
 84.17     631.94
 84.27     613.00
 84.37     569.00
 84.47     582.82
 84.57     564.00
 84.67     621.13
 84.77     622.00
 84.87     630.72
 84.97     584.70
 85.07     559.16
 85.17     505.00
 85.27     572.00
 85.37     558.00
 85.47     560.00
 85.57     568.00
 85.67     571.00
 85.77     610.67
 85.87     538.22
 85.97     532.92
 86.07     613.57
 86.17     599.82
 86.27     562.00
 86.37     576.00
 86.47     582.00
 86.57     592.00
 86.67     543.95
 86.77     632.00
 86.87     607.25
 86.97     618.45
 87.07     637.00
 87.17     669.00
 87.27     623.00
 87.37     672.25
 87.47     600.00
 87.57     595.99
 87.67     681.00
 87.77     647.00
 87.87     650.68
 87.97     656.00
 88.07     617.46
 88.17     626.00
 88.27     698.00
 88.37     663.00
 88.47     672.00
 88.57     647.03
 88.67     583.81
 88.77     623.00
 88.87     589.00
 88.97     545.00
 89.07     645.00
 89.17     607.00
 89.27     576.31
 89.37     641.00
 89.47     575.00
 89.57     636.06
 89.67     602.00
 89.77     645.00
 89.87     652.00
 89.97     656.00
 90.07     612.00
 90.17     576.41
 90.27     619.00
 90.37     651.00
 90.47     565.58
 90.57     560.00
 90.67     614.17
 90.77     546.35
 90.87     547.00
 90.97     566.43
 91.07     550.00
 91.17     548.07
 91.27     569.00
 91.37     502.00
 91.47     508.00
 91.57     584.00
 91.67     494.00
 91.77     561.00
 91.87     535.00
 91.97     551.00
 92.07     562.00
 92.17     525.00
 92.27     531.00
 92.37     528.86
 92.47     579.00
 92.57     591.52
 92.67     597.00
 92.77     575.08
 92.87     603.00
 92.97     582.00
 93.07     648.96
 93.17     672.00
 93.27     653.70
 93.37     668.00
 93.47     702.64
 93.57     689.75
 93.67     700.04
 93.77     825.39
 93.87     748.77
 93.97     769.00
 94.07     786.00
 94.17     790.00
 94.27     830.00
 94.37     838.00
 94.47     857.00
 94.57     892.64
 94.67     879.00
 94.77     952.00
 94.87     855.85
 94.97     958.00
 95.07     955.00
 95.17    1046.00
 95.27     931.21
 95.37     965.00
 95.47     967.00
 95.57     971.00
 95.67     991.98
 95.77     913.62
 95.87     887.34
 95.97     834.97
 96.07     805.01
 96.17     840.36
 96.27     832.00
 96.37     747.00
 96.47     814.00
 96.57     749.00
 96.67     744.00
 96.77     836.00
 96.87     739.41
 96.97     878.02
 97.07     833.00
 97.17     914.00
 97.27    1027.00
 97.37    1015.00
 97.47    1150.00
 97.57    1131.28
 97.67    1327.00
 97.77    1293.62
 97.87    1414.78
 97.97    1399.73
 98.07    1515.00
 98.17    1440.16
 98.27    1523.00
 98.37    1537.00
 98.47    1503.00
 98.57    1355.00
 98.67    1310.76
 98.77    1300.00
 98.87    1192.00
 98.97    1173.06
 99.07    1148.33
 99.17    1067.72
 99.27    1006.00
 99.37    1044.71
 99.47     897.34
 99.57     962.00
 99.67    1001.00
 99.77     980.00
 99.87     983.00
 99.97    1033.32
100.07    1042.55
100.17    1135.00
100.27    1271.02
100.37    1329.00
100.47    1456.00
100.57    1443.93
100.67    1541.43
100.77    1606.49
100.87    1917.00
100.97    1874.00
101.07    1827.97
101.17    1915.00
101.27    1983.83
101.37    2071.00
101.47    1934.56
101.57    2002.00
101.67    2071.00
101.77    1945.00
101.87    1987.55
101.97    1822.42
102.07    1857.67
102.17    1701.00
102.27    1612.13
102.37    1579.00
102.47    1481.00
102.57    1440.00
102.67    1452.35
102.77    1357.08
102.87    1325.67
102.97    1294.48
103.07    1284.00
103.17    1243.04
103.27    1090.00
103.37    1170.54
103.47    1134.28
103.57    1079.00
103.67    1074.00
103.77    1052.07
103.87     927.00
103.97     969.60
104.07     851.00
104.17     864.00
104.27     824.00
104.37     757.38
104.47     716.00
104.57     740.00
104.67     722.02
104.77     702.95
104.87     703.00
104.97     661.00
105.07     612.26
105.17     633.96
105.27     641.00
105.37     596.59
105.47     561.11
105.57     616.00
105.67     592.00
105.77     617.00
105.87     534.26
105.97     603.00
106.07     551.50
106.17     604.00
106.27     586.00
106.37     565.00
106.47     587.00
106.57     572.00
106.67     612.28
106.77     614.00
106.87     655.00
106.97     666.00
107.07     652.00
107.17     675.17
107.27     664.00
107.37     728.69
107.47     709.40
107.57     672.88
107.67     664.67
107.77     728.00
107.87     769.74
107.97     719.00
108.07     788.00
108.17     739.00
108.27     695.00
108.37     739.00
108.47     741.00
108.57     757.73
108.67     721.00
108.77     698.00
108.87     746.00
108.97     687.00
109.07     772.18
109.17     759.56
109.27     716.00
109.37     682.00
109.47     745.00
109.57     737.00
109.67     721.00
109.77     746.00
109.87     669.00
109.97     769.77
110.07     718.63
110.17     668.00
110.27     647.44
110.37     695.30
110.47     670.00
110.57     655.00
110.67     668.00
110.77     593.12
110.87     593.00
110.97     580.00
111.07     599.00
111.17     636.00
111.27     597.00
111.37     565.21
111.47     614.00
111.57     596.00
111.67     604.00
111.77     576.00
111.87     605.00
111.97     628.00
112.07     587.14
112.17     560.00
112.27     569.00
112.37     625.00
112.47     537.00
112.57     570.47
112.67     594.00
112.77     587.00
112.87     585.00
112.97     571.00
113.07     613.17
113.17     608.00
113.27     584.00
113.37     571.00
113.47     559.00
113.57     603.00
113.67     566.60
113.77     570.00
113.87     581.00
113.97     628.00
114.07     674.00
114.17     629.46
114.27     701.43
114.37     651.00
114.47     735.62
114.57     732.00
114.67     754.00
114.77     821.70
114.87     866.62
114.97     905.00
115.07     986.58
115.17    1115.00
115.27    1224.00
115.37    1283.00
115.47    1543.00
115.57    1642.00
115.67    1906.00
115.77    2088.55
115.87    2466.00
115.97    2554.85
116.07    2921.00
116.17    3258.44
116.27    3683.00
116.37    3803.55
116.47    4406.00
116.57    4652.00
116.67    5016.88
116.77    5444.00
116.87    5865.00
116.97    6004.76
117.07    6313.31
117.17    6936.00
117.27    7026.18
117.37    7182.17
117.47    7096.68
117.57    7326.87
117.67    7212.00
117.77    7050.59
117.87    6785.00
117.97    6682.61
118.07    6373.00
118.17    6145.92
118.27    5679.21
118.37    5301.00
118.47    4897.56
118.57    4542.54
118.67    4247.00
118.77    3799.43
118.87    3582.00
118.97    3214.00
119.07    2882.00
119.17    2589.00
119.27    2364.00
119.37    2190.00
119.47    1933.00
119.57    1720.00
119.67    1568.00
119.77    1427.00
119.87    1357.00
119.97    1272.00
120.07    1191.00
120.17    1078.20
120.27     970.08
120.37     962.78
120.47     894.00
120.57     829.13
120.67     840.00
120.77     740.00
120.87     798.00
120.97     712.59
121.07     732.00
121.17     728.00
121.27     679.00
121.37     671.00
121.47     687.91
121.57     617.58
121.67     700.70
121.77     644.00
121.87     646.00
121.97     650.00
122.07     635.00
122.17     687.40
122.27     622.00
122.37     664.00
122.47     636.00
122.57     644.59
122.67     631.00
122.77     638.76
122.87     679.00
122.97     699.00
123.07     718.62
123.17     653.25
123.27     678.00
123.37     670.00
123.47     709.00
123.57     640.72
123.67     715.00
123.77     722.76
123.87     737.41
123.97     702.00
124.07     699.98
124.17     705.00
124.27     719.00
124.37     746.00
124.47     692.00
124.57     668.06
124.67     666.00
124.77     670.55
124.87     660.00
124.97     661.00
