  9.97     542.29
 10.07     558.00
 10.17     585.02
 10.27     639.00
 10.37     530.38
 10.47     523.09
 10.57     611.00
 10.67     570.00
 10.77     611.57
 10.87     524.15
 10.97     605.00
 11.07     611.00
 11.17     629.00
 11.27     539.00
 11.37     600.00
 11.47     562.95
 11.57     598.00
 11.67     593.00
 11.77     652.00
 11.87     651.00
 11.97     619.02
 12.07     666.00
 12.17     671.75
 12.27     670.00
 12.37     635.00
 12.47     636.00
 12.57     639.89
 12.67     535.00
 12.77     551.00
 12.87     528.80
 12.97     611.67
 13.07     600.00
 13.17     574.00
 13.27     560.48
 13.37     563.00
 13.47     561.87
 13.57     545.00
 13.67     600.00
 13.77     603.34
 13.87     567.00
 13.97     576.00
 14.07     584.71
 14.17     600.70
 14.27     541.00
 14.37     542.00
 14.47     547.00
 14.57     546.04
 14.67     525.58
 14.77     559.00
 14.87     551.00
 14.97     557.00
 15.07     591.05
 15.17     547.00
 15.27     605.79
 15.37     536.24
 15.47     566.76
 15.57     559.00
 15.67     559.75
 15.77     578.04
 15.87     540.84
 15.97     560.71
 16.07     572.00
 16.17     512.00
 16.27     593.73
 16.37     539.89
 16.47     596.00
 16.57     537.00
 16.67     559.00
 16.77     553.00
 16.87     529.00
 16.97     562.00
 17.07     600.31
 17.17     548.00
 17.27     557.00
 17.37     599.70
 17.47     594.13
 17.57     540.00
 17.67     543.00
 17.77     516.62
 17.87     589.57
 17.97     541.00
 18.07     608.00
 18.17     527.00
 18.27     556.42
 18.37     527.00
 18.47     608.50
 18.57     610.00
 18.67     575.00
 18.77     543.00
 18.87     542.00
 18.97     573.29
 19.07     558.00
 19.17     607.23
 19.27     522.00
 19.37     557.00
 19.47     545.00
 19.57     520.17
 19.67     560.67
 19.77     567.00
 19.87     565.00
 19.97     533.00
 20.07     532.00
 20.17     516.00
 20.27     562.00
 20.37     563.80
 20.47     524.00
 20.57     573.00
 20.67     517.59
 20.77     556.00
 20.87     543.45
 20.97     551.60
 21.07     541.52
 21.17     557.81
 21.27     546.00
 21.37     506.08
 21.47     516.00
 21.57     588.62
 21.67     518.99
 21.77     507.39
 21.87     564.00
 21.97     545.00
 22.07     577.00
 22.17     500.00
 22.27     544.00
 22.37     560.67
 22.47     536.00
 22.57     556.00
 22.67     561.00
 22.77     566.00
 22.87     550.00
 22.97     576.67
 23.07     582.41
 23.17     525.00
 23.27     526.00
 23.37     531.00
 23.47     553.00
 23.57     588.00
 23.67     529.59
 23.77     552.00
 23.87     588.62
 23.97     506.88
 24.07     526.93
 24.17     568.00
 24.27     588.00
 24.37     607.00
 24.47     619.00
 24.57     618.00
 24.67     595.80
 24.77     645.00
 24.87     641.31
 24.97     649.00
 25.07     568.00
 25.17     595.00
 25.27     561.61
 25.37     555.00
 25.47     577.57
 25.57     512.90
 25.67     582.00
 25.77     540.50
 25.87     547.00
 25.97     540.72
 26.07     567.00
 26.17     578.00
 26.27     505.00
 26.37     572.00
 26.47     504.18
 26.57     544.00
 26.67     497.09
 26.77     555.00
 26.87     564.00
 26.97     586.74
 27.07     560.08
 27.17     548.00
 27.27     520.34
 27.37     569.00
 27.47     565.00
 27.57     567.00
 27.67     548.83
 27.77     579.00
 27.87     592.00
 27.97     678.35
 28.07     785.34
 28.17     856.00
 28.27     930.00
 28.37     956.75
 28.47     818.00
 28.57     767.24
 28.67     664.72
 28.77     782.00
 28.87     752.89
 28.97     829.00
 29.07     755.47
 29.17     680.00
 29.27     666.00
 29.37     651.00
 29.47     625.00
 29.57     541.87
 29.67     600.00
 29.77     527.10
 29.87     584.00
 29.97     558.00
 30.07     582.45
 30.17     550.14
 30.27     609.00
 30.37     516.94
 30.47     557.02
 30.57     588.00
 30.67     566.00
 30.77     626.00
 30.87     567.38
 30.97     638.00
 31.07     571.00
 31.17     646.00
 31.27     530.00
 31.37     554.00
 31.47     526.45
 31.57     529.00
 31.67     563.00
 31.77     487.45
 31.87     554.00
 31.97     516.14
 32.07     488.92
 32.17     543.00
 32.27     574.09
 32.37     564.24
 32.47     488.38
 32.57     516.00
 32.67     533.00
 32.77     579.00
 32.87     522.89
 32.97     550.00
 33.07     546.00
 33.17     560.00
 33.27     564.00
 33.37     568.00
 33.47     525.90
 33.57     603.00
 33.67     642.00
 33.77     747.00
 33.87     863.00
 33.97     952.00
 34.07    1014.36
 34.17    1065.91
 34.27     956.00
 34.37     764.00
 34.47     645.00
 34.57     622.00
 34.67     593.75
 34.77     571.00
 34.87     537.50
 34.97     516.47
 35.07     506.00
 35.17     534.52
 35.27     528.00
 35.37     478.00
 35.47     492.88
 35.57     502.00
 35.67     528.00
 35.77     485.26
 35.87     522.21
 35.97     511.00
 36.07     507.57
 36.17     515.00
 36.27     489.54
 36.37     501.00
 36.47     507.00
 36.57     526.00
 36.67     537.00
 36.77     473.00
 36.87     513.00
 36.97     517.00
 37.07     550.21
 37.17     498.00
 37.27     517.45
 37.37     530.00
 37.47     555.19
 37.57     500.02
 37.67     536.86
 37.77     536.00
 37.87     584.00
 37.97     504.00
 38.07     539.00
 38.17     497.85
 38.27     501.93
 38.37     450.00
 38.47     509.00
 38.57     484.51
 38.67     541.05
 38.77     480.18
 38.87     497.72
 38.97     515.39
 39.07     508.00
 39.17     494.00
 39.27     548.65
 39.37     490.00
 39.47     503.00
 39.57     486.00
 39.67     464.00
 39.77     506.00
 39.87     539.38
 39.97     489.00
 40.07     526.00
 40.17     509.00
 40.27     497.00
 40.37     491.00
 40.47     543.69
 40.57     462.00
 40.67     464.00
 40.77     512.00
 40.87     478.00
 40.97     484.32
 41.07     501.00
 41.17     499.00
 41.27     460.66
 41.37     541.00
 41.47     506.31
 41.57     491.00
 41.67     526.00
 41.77     484.00
 41.87     511.54
 41.97     479.00
 42.07     543.34
 42.17     518.00
 42.27     548.00
 42.37     534.76
 42.47     588.00
 42.57     575.00
 42.67     585.00
 42.77     601.00
 42.87     636.16
 42.97     626.55
 43.07     554.00
 43.17     534.00
 43.27     528.00
 43.37     499.23
 43.47     510.00
 43.57     511.39
 43.67     479.00
 43.77     534.44
 43.87     544.39
 43.97     516.00
 44.07     523.00
 44.17     469.76
 44.27     493.00
 44.37     482.00
 44.47     477.00
 44.57     534.51
 44.67     509.00
 44.77     474.00
 44.87     532.00
 44.97     518.24
 45.07     532.00
 45.17     464.00
 45.27     498.00
 45.37     518.00
 45.47     520.00
 45.57     509.00
 45.67     497.00
 45.77     491.00
 45.87     510.00
 45.97     489.00
 46.07     512.24
 46.17     515.00
 46.27     499.00
 46.37     467.00
 46.47     493.00
 46.57     507.00
 46.67     489.45
 46.77     519.67
 46.87     470.98
 46.97     551.00
 47.07     480.00
 47.17     544.66
 47.27     537.00
 47.37     489.69
 47.47     524.00
 47.57     613.00
 47.67     540.35
 47.77     577.00
 47.87     570.00
 47.97     620.29
 48.07     536.64
 48.17     602.32
 48.27     540.09
 48.37     588.45
 48.47     502.00
 48.57     530.00
 48.67     524.00
 48.77     562.00
 48.87     546.95
 48.97     514.00
 49.07     527.71
 49.17     533.00
 49.27     557.00
 49.37     619.08
 49.47     640.00
 49.57     754.63
 49.67     862.26
 49.77    1138.00
 49.87    1401.00
 49.97    1771.00
 50.07    2086.00
 50.17    2277.00
 50.27    2340.22
 50.37    2132.00
 50.47    1827.00
 50.57    1374.00
 50.67    1081.72
 50.77     961.52
 50.87     723.00
 50.97     682.00
 51.07     604.00
 51.17     629.00
 51.27     647.35
 51.37     579.00
 51.47     588.00
 51.57     551.93
 51.67     579.00
 51.77     562.00
 51.87     530.00
 51.97     543.00
 52.07     494.91
 52.17     520.22
 52.27     521.28
 52.37     534.39
 52.47     582.00
 52.57     575.54
 52.67     592.00
 52.77     552.88
 52.87     648.46
 52.97     707.00
 53.07     775.13
 53.17     891.00
 53.27    1024.00
 53.37    1076.00
 53.47    1229.00
 53.57    1140.00
 53.67    1135.00
 53.77     976.32
 53.87     864.97
 53.97     847.02
 54.07     663.16
 54.17     676.66
 54.27     596.69
 54.37     598.00
 54.47     574.00
 54.57     564.00
 54.67     541.00
 54.77     608.00
 54.87     574.00
 54.97     537.00
 55.07     498.64
 55.17     576.00
 55.27     574.00
 55.37     606.00
 55.47     573.00
 55.57     568.00
 55.67     556.00
 55.77     586.00
 55.87     612.00
 55.97     654.75
 56.07     732.69
 56.17     803.04
 56.27     928.00
 56.37    1182.74
 56.47    1378.96
 56.57    1684.77
 56.67    2107.24
 56.77    2359.00
 56.87    2630.00
 56.97    2575.00
 57.07    2365.00
 57.17    2056.00
 57.27    1766.00
 57.37    1357.00
 57.47    1103.18
 57.57     944.00
 57.67     792.96
 57.77     765.00
 57.87     727.00
 57.97     652.00
 58.07     717.28
 58.17     739.03
 58.27     808.50
 58.37     800.59
 58.47     900.00
 58.57     911.00
 58.67    1076.01
 58.77    1102.64
 58.87    1280.00
 58.97    1244.54
 59.07    1334.00
 59.17    1372.54
 59.27    1393.00
 59.37    1189.46
 59.47    1207.00
 59.57    1241.00
 59.67    1178.00
 59.77    1160.00
 59.87    1228.78
 59.97    1376.00
 60.07    1503.00
 60.17    1588.00
 60.27    1590.00
 60.37    1445.62
 60.47    1333.16
 60.57    1203.59
 60.67    1050.44
 60.77     894.05
 60.87     767.00
 60.97     738.36
 61.07     704.00
 61.17     629.00
 61.27     672.00
 61.37     678.76
 61.47     686.00
 61.57     760.00
 61.67     856.00
 61.77     934.00
 61.87    1047.00
 61.97    1270.15
 62.07    1295.00
 62.17    1390.19
 62.27    1376.00
 62.37    1335.91
 62.47    1187.00
 62.57    1093.00
 62.67     974.10
 62.77     777.00
 62.87     723.55
 62.97     704.00
 63.07     579.00
 63.17     627.06
 63.27     599.00
 63.37     560.04
 63.47     588.00
 63.57     603.00
 63.67     587.00
 63.77     589.16
 63.87     630.00
 63.97     683.00
 64.07     738.00
 64.17     800.00
 64.27     835.00
 64.37     922.63
 64.47     923.00
 64.57     929.27
 64.67     982.00
 64.77     983.00
 64.87     964.00
 64.97     913.54
 65.07     879.32
 65.17     795.29
 65.27     767.00
 65.37     690.00
 65.47     634.00
 65.57     592.00
 65.67     580.00
 65.77     579.00
 65.87     560.00
 65.97     561.15
 66.07     568.00
 66.17     565.18
 66.27     609.06
 66.37     560.00
 66.47     538.00
 66.57     588.82
 66.67     601.34
 66.77     594.00
 66.87     610.00
 66.97     605.34
 67.07     635.00
 67.17     651.00
 67.27     771.00
 67.37     869.97
 67.47    1020.48
 67.57    1229.00
 67.67    1574.00
 67.77    1711.21
 67.87    2027.26
 67.97    2236.36
 68.07    2277.06
 68.17    2476.96
 68.27    2318.94
 68.37    2141.00
 68.47    1842.45
 68.57    1560.80
 68.67    1330.98
 68.77    1145.00
 68.87     899.91
 68.97     815.00
 69.07     730.00
 69.17     619.61
 69.27     613.00
 69.37     621.00
 69.47     595.47
 69.57     642.00
 69.67     602.00
 69.77     566.00
 69.87     575.00
 69.97     580.41
 70.07     570.00
 70.17     568.00
 70.27     598.47
 70.37     575.00
 70.47     552.26
 70.57     597.35
 70.67     586.00
 70.77     557.43
 70.87     561.00
 70.97     636.66
 71.07     651.96
 71.17     753.00
 71.27     770.00
 71.37     989.84
 71.47    1066.00
 71.57    1247.00
 71.67    1366.32
 71.77    1609.00
 71.87    1777.71
 71.97    1941.25
 72.07    1868.00
 72.17    1846.00
 72.27    1701.73
 72.37    1596.48
 72.47    1480.00
 72.57    1248.00
 72.67    1163.00
 72.77     971.00
 72.87     859.42
 72.97     820.59
 73.07     704.00
 73.17     749.00
 73.27     695.00
 73.37     611.58
 73.47     615.21
 73.57     636.00
 73.67     598.00
 73.77     636.00
 73.87     595.00
 73.97     600.00
 74.07     555.16
 74.17     616.00
 74.27     580.00
 74.37     597.81
 74.47     667.00
 74.57     623.00
 74.67     650.00
 74.77     626.00
 74.87     684.00
 74.97     619.00
 75.07     629.00
 75.17     589.00
 75.27     591.00
 75.37     573.00
 75.47     583.00
 75.57     569.00
 75.67     553.49
 75.77     579.00
 75.87     625.12
 75.97     638.00
 76.07     622.00
 76.17     653.35
 76.27     652.76
 76.37     681.00
 76.47     697.00
 76.57     664.00
 76.67     689.00
 76.77     729.13
 76.87     716.00
 76.97     663.98
 77.07     612.00
 77.17     595.00
 77.27     601.06
 77.37     581.00
 77.47     565.00
 77.57     534.00
 77.67     529.93
 77.77     532.00
 77.87     514.62
 77.97     539.41
 78.07     572.17
 78.17     502.00
 78.27     563.25
 78.37     499.00
 78.47     509.00
 78.57     479.00
 78.67     563.73
 78.77     514.00
 78.87     545.69
 78.97     528.00
 79.07     509.00
 79.17     545.32
 79.27     509.39
 79.37     510.59
 79.47     504.38
 79.57     524.22
 79.67     544.00
 79.77     554.00
 79.87     527.77
 79.97     562.00
 80.07     535.02
 80.17     555.00
 80.27     567.47
 80.37     626.70
 80.47     557.00
 80.57     562.00
 80.67     614.00
 80.77     590.00
 80.87     641.00
 80.97     667.00
 81.07     735.79
 81.17     711.68
 81.27     762.58
 81.37     717.00
 81.47     720.00
 81.57     733.00
 81.67     737.00
 81.77     785.00
 81.87     709.00
 81.97     711.60
 82.07     629.00
 82.17     669.00
 82.27     677.20
 82.37     627.00
 82.47     655.22
 82.57     552.40
 82.67     566.00
 82.77     509.00
 82.87     607.57
 82.97     526.00
 83.07     531.55
 83.17     589.84
 83.27     568.00
 83.37     522.00
 83.47     544.62
 83.57     529.00
 83.67     564.26
 83.77     540.00
 83.87     591.00
 83.97     585.62
 84.07     567.00
 84.17     544.00
 84.27     556.00
 84.37     573.00
 84.47     511.00
 84.57     550.00
 84.67     514.00
 84.77     542.00
 84.87     586.50
 84.97     541.25
 85.07     525.45
 85.17     500.50
 85.27     513.00
 85.37     494.91
 85.47     518.61
 85.57     517.48
 85.67     569.00
 85.77     501.98
 85.87     516.00
 85.97     503.50
 86.07     529.00
 86.17     528.78
 86.27     561.00
 86.37     523.08
 86.47     503.97
 86.57     505.00
 86.67     538.00
 86.77     604.00
 86.87     569.00
 86.97     605.00
 87.07     594.00
 87.17     681.00
 87.27     599.81
 87.37     681.00
 87.47     658.00
 87.57     662.00
 87.67     692.00
 87.77     610.00
 87.87     603.00
 87.97     644.00
 88.07     631.00
 88.17     573.60
 88.27     617.00
 88.37     546.37
 88.47     535.27
 88.57     531.42
 88.67     584.00
 88.77     612.00
 88.87     631.00
 88.97     623.00
 89.07     604.00
 89.17     601.00
 89.27     592.00
 89.37     582.35
 89.47     622.00
 89.57     579.00
 89.67     606.00
 89.77     594.00
 89.87     479.00
 89.97     585.00
 90.07     608.20
 90.17     597.33
 90.27     506.00
 90.37     560.00
 90.47     559.00
 90.57     570.00
 90.67     499.00
 90.77     506.00
 90.87     497.00
 90.97     537.28
 91.07     516.00
 91.17     537.12
 91.27     537.00
 91.37     563.92
 91.47     549.00
 91.57     552.27
 91.67     513.00
 91.77     553.00
 91.87     533.00
 91.97     550.00
 92.07     546.64
 92.17     565.00
 92.27     608.00
 92.37     615.74
 92.47     571.00
 92.57     620.00
 92.67     659.00
 92.77     662.35
 92.87     663.00
 92.97     707.00
 93.07     718.00
 93.17     736.42
 93.27     706.46
 93.37     749.00
 93.47     753.00
 93.57     807.00
 93.67     768.02
 93.77     835.31
 93.87     760.05
 93.97     835.98
 94.07     847.00
 94.17     904.00
 94.27     870.83
 94.37     848.00
 94.47     856.00
 94.57     902.00
 94.67     901.00
 94.77     889.00
 94.87     885.78
 94.97     876.00
 95.07     850.42
 95.17     867.00
 95.27     840.00
 95.37     821.00
 95.47     788.00
 95.57     752.39
 95.67     750.00
 95.77     675.00
 95.87     762.00
 95.97     651.00
 96.07     697.15
 96.17     707.00
 96.27     756.00
 96.37     779.00
 96.47     839.71
 96.57     842.00
 96.67     920.00
 96.77     917.90
 96.87    1008.84
 96.97    1147.00
 97.07    1200.27
 97.17    1232.00
 97.27    1296.02
 97.37    1310.00
 97.47    1450.00
 97.57    1416.00
 97.67    1430.00
 97.77    1462.08
 97.87    1300.40
 97.97    1261.00
 98.07    1285.00
 98.17    1236.61
 98.27    1131.00
 98.37    1099.82
 98.47    1002.00
 98.57     877.00
 98.67     851.00
 98.77     833.00
 98.87     837.00
 98.97     842.00
 99.07     825.00
 99.17     863.00
 99.27     912.00
 99.37    1004.93
 99.47    1058.00
 99.57    1137.46
 99.67    1097.00
 99.77    1342.00
 99.87    1314.40
 99.97    1425.17
100.07    1583.00
100.17    1734.06
100.27    1818.00
100.37    1870.63
100.47    1815.00
100.57    2014.00
100.67    2054.00
100.77    2084.00
100.87    2079.41
100.97    1993.00
101.07    1929.00
101.17    1914.21
101.27    1734.00
101.37    1744.00
101.47    1674.00
101.57    1562.00
101.67    1411.00
101.77    1394.00
101.87    1304.00
101.97    1271.00
102.07    1273.92
102.17    1201.59
102.27    1232.14
102.37    1160.00
102.47    1099.17
102.57    1086.00
102.67    1038.00
102.77     998.00
102.87     999.21
102.97    1025.00
103.07    1021.68
103.17     942.78
103.27     927.31
103.37     870.00
103.47     833.00
103.57     752.00
103.67     723.00
103.77     703.00
103.87     665.54
103.97     638.04
104.07     589.00
104.17     616.00
104.27     607.00
104.37     596.00
104.47     568.00
104.57     560.00
104.67     567.88
104.77     600.00
104.87     533.00
104.97     539.54
105.07     609.00
105.17     557.00
105.27     490.48
105.37     485.62
105.47     553.66
105.57     519.75
105.67     548.00
105.77     577.83
105.87     552.42
105.97     595.00
106.07     592.00
106.17     547.00
106.27     565.54
106.37     590.00
106.47     587.00
106.57     636.00
106.67     616.00
106.77     685.00
106.87     693.11
106.97     652.00
107.07     682.79
107.17     676.00
107.27     710.00
107.37     654.00
107.47     684.88
107.57     679.93
107.67     671.00
107.77     678.00
107.87     703.65
107.97     713.37
108.07     719.59
108.17     646.00
108.27     691.00
108.37     682.00
108.47     750.73
108.57     704.14
108.67     727.94
108.77     682.00
108.87     657.87
108.97     731.00
109.07     718.68
109.17     657.00
109.27     635.00
109.37     704.00
109.47     684.00
109.57     670.00
109.67     620.00
109.77     656.00
109.87     606.00
109.97     611.00
110.07     644.00
110.17     619.74
110.27     578.00
110.37     595.00
110.47     546.00
110.57     571.54
110.67     530.00
110.77     583.00
110.87     550.00
110.97     549.03
111.07     547.00
111.17     526.00
111.27     542.00
111.37     574.00
111.47     499.27
111.57     524.33
111.67     581.97
111.77     516.76
111.87     575.00
111.97     534.01
112.07     584.06
112.17     606.02
112.27     533.00
112.37     558.01
112.47     583.37
112.57     600.00
112.67     596.00
112.77     617.00
112.87     619.00
112.97     580.00
113.07     658.71
113.17     602.00
113.27     670.15
113.37     619.00
113.47     709.00
113.57     705.00
113.67     723.00
113.77     767.06
113.87     790.00
113.97     894.00
114.07     899.72
114.17     911.00
114.27     924.00
114.37    1049.60
114.47    1194.52
114.57    1314.00
114.67    1426.54
114.77    1544.93
114.87    1853.00
114.97    1845.64
115.07    2225.25
115.17    2427.00
115.27    2785.00
115.37    2965.68
115.47    3331.00
115.57    3653.00
115.67    4050.00
115.77    4257.00
115.87    4722.58
115.97    5128.69
116.07    5330.07
116.17    5907.75
116.27    6224.00
116.37    6334.36
116.47    6738.00
116.57    6759.00
116.67    6868.00
116.77    6806.00
116.87    6553.00
116.97    6679.00
117.07    6511.00
117.17    6085.00
117.27    5590.00
117.37    5385.00
117.47    5021.00
117.57    4837.19
117.67    4469.00
117.77    4121.00
117.87    3754.00
117.97    3244.55
118.07    3124.74
118.17    2714.50
118.27    2383.00
118.37    2175.00
118.47    1961.00
118.57    1820.85
118.67    1520.00
118.77    1369.32
118.87    1184.00
118.97    1123.00
119.07     982.00
119.17     930.00
119.27     914.43
119.37     892.65
119.47     853.00
119.57     707.00
119.67     751.00
119.77     705.00
119.87     676.00
119.97     660.00
120.07     629.00
120.17     624.00
120.27     643.78
120.37     637.00
120.47     590.00
120.57     612.00
120.67     564.00
120.77     536.57
120.87     538.29
120.97     593.00
121.07     568.00
121.17     583.00
121.27     608.00
121.37     614.00
121.47     578.00
121.57     609.00
121.67     619.00
121.77     565.00
121.87     583.27
121.97     622.24
122.07     660.25
122.17     664.00
122.27     660.74
122.37     617.00
122.47     677.00
122.57     667.00
122.67     630.34
122.77     683.00
122.87     629.93
122.97     606.00
123.07     690.37
123.17     624.52
123.27     638.00
123.37     635.00
123.47     699.00
123.57     653.79
123.67     632.00
123.77     612.00
123.87     650.47
123.97     672.85
124.07     596.00
124.17     569.00
124.27     605.44
124.37     617.00
124.47     571.00
124.57     623.00
124.67     602.76
124.77     628.00
124.87     570.77
124.97     571.00
