  9.97     597.82
 10.07     637.00
 10.17     590.00
 10.27     607.00
 10.37     602.60
 10.47     627.00
 10.57     543.92
 10.67     568.00
 10.77     591.00
 10.87     617.00
 10.97     568.00
 11.07     620.82
 11.17     599.00
 11.27     541.00
 11.37     546.21
 11.47     566.00
 11.57     653.00
 11.67     579.00
 11.77     618.00
 11.87     570.96
 11.97     740.00
 12.07     696.00
 12.17     751.99
 12.27     665.00
 12.37     636.00
 12.47     591.00
 12.57     592.00
 12.67     584.00
 12.77     609.00
 12.87     601.00
 12.97     561.00
 13.07     595.00
 13.17     571.92
 13.27     559.00
 13.37     569.44
 13.47     571.00
 13.57     532.00
 13.67     568.01
 13.77     572.00
 13.87     523.00
 13.97     580.00
 14.07     548.00
 14.17     573.00
 14.27     591.00
 14.37     541.00
 14.47     611.53
 14.57     582.00
 14.67     528.50
 14.77     550.00
 14.87     590.52
 14.97     566.71
 15.07     599.00
 15.17     551.00
 15.27     576.61
 15.37     540.00
 15.47     573.86
 15.57     559.00
 15.67     585.49
 15.77     533.75
 15.87     590.87
 15.97     600.09
 16.07     527.00
 16.17     528.00
 16.27     563.00
 16.37     532.00
 16.47     553.00
 16.57     571.17
 16.67     528.00
 16.77     568.09
 16.87     596.17
 16.97     522.41
 17.07     552.00
 17.17     575.00
 17.27     526.94
 17.37     542.00
 17.47     572.00
 17.57     595.88
 17.67     555.00
 17.77     559.00
 17.87     597.13
 17.97     614.00
 18.07     531.00
 18.17     593.61
 18.27     573.00
 18.37     536.00
 18.47     551.00
 18.57     591.00
 18.67     541.74
 18.77     574.74
 18.87     585.33
 18.97     549.00
 19.07     513.78
 19.17     560.50
 19.27     513.00
 19.37     535.23
 19.47     583.30
 19.57     540.00
 19.67     515.17
 19.77     560.03
 19.87     526.00
 19.97     589.25
 20.07     579.00
 20.17     560.00
 20.27     546.51
 20.37     544.84
 20.47     575.00
 20.57     522.49
 20.67     550.29
 20.77     552.00
 20.87     591.13
 20.97     540.00
 21.07     537.00
 21.17     566.67
 21.27     562.96
 21.37     533.00
 21.47     590.86
 21.57     518.69
 21.67     568.66
 21.77     520.00
 21.87     541.00
 21.97     552.00
 22.07     569.00
 22.17     536.16
 22.27     552.00
 22.37     535.00
 22.47     579.00
 22.57     520.00
 22.67     572.00
 22.77     568.72
 22.87     537.00
 22.97     510.73
 23.07     571.15
 23.17     575.00
 23.27     510.00
 23.37     565.00
 23.47     576.01
 23.57     537.54
 23.67     563.00
 23.77     559.00
 23.87     504.90
 23.97     557.12
 24.07     519.13
 24.17     537.00
 24.27     582.00
 24.37     537.17
 24.47     567.70
 24.57     580.00
 24.67     649.00
 24.77     657.00
 24.87     645.00
 24.97     570.00
 25.07     548.00
 25.17     578.79
 25.27     530.00
 25.37     523.00
 25.47     583.00
 25.57     519.00
 25.67     545.00
 25.77     551.00
 25.87     523.27
 25.97     578.98
 26.07     548.51
 26.17     532.01
 26.27     566.00
 26.37     553.00
 26.47     581.88
 26.57     563.00
 26.67     551.00
 26.77     556.00
 26.87     502.42
 26.97     505.08
 27.07     525.60
 27.17     579.00
 27.27     565.84
 27.37     555.20
 27.47     606.00
 27.57     597.00
 27.67     547.00
 27.77     551.00
 27.87     605.00
 27.97     679.00
 28.07     810.00
 28.17     914.00
 28.27     978.42
 28.37     880.00
 28.47     730.00
 28.57     743.16
 28.67     689.00
 28.77     739.00
 28.87     803.00
 28.97     861.01
 29.07     780.00
 29.17     692.00
 29.27     648.55
 29.37     593.00
 29.47     532.36
 29.57     550.00
 29.67     535.00
 29.77     546.82
 29.87     547.00
 29.97     589.00
 30.07     505.05
 30.17     580.00
 30.27     571.00
 30.37     561.00
 30.47     600.00
 30.57     569.00
 30.67     576.00
 30.77     578.94
 30.87     607.00
 30.97     565.80
 31.07     582.22
 31.17     550.00
 31.27     560.00
 31.37     510.22
 31.47     511.29
 31.57     531.00
 31.67     561.00
 31.77     563.04
 31.87     564.00
 31.97     502.07
 32.07     568.34
 32.17     491.51
 32.27     501.45
 32.37     582.00
 32.47     531.86
 32.57     507.00
 32.67     531.00
 32.77     514.00
 32.87     549.00
 32.97     542.46
 33.07     532.00
 33.17     533.00
 33.27     552.00
 33.37     575.00
 33.47     556.00
 33.57     610.00
 33.67     654.00
 33.77     694.00
 33.87     873.00
 33.97    1089.00
 34.07    1016.35
 34.17    1039.00
 34.27     886.00
 34.37     715.38
 34.47     673.00
 34.57     580.00
 34.67     561.00
 34.77     567.00
 34.87     564.00
 34.97     556.42
 35.07     555.00
 35.17     545.82
 35.27     490.00
 35.37     540.04
 35.47     533.00
 35.57     524.00
 35.67     489.17
 35.77     520.45
 35.87     517.13
 35.97     538.00
 36.07     474.95
 36.17     521.00
 36.27     514.00
 36.37     551.01
 36.47     517.00
 36.57     522.00
 36.67     512.00
 36.77     481.00
 36.87     540.37
 36.97     501.47
 37.07     493.00
 37.17     532.71
 37.27     481.00
 37.37     545.57
 37.47     526.00
 37.57     528.00
 37.67     568.38
 37.77     524.00
 37.87     540.92
 37.97     488.00
 38.07     548.51
 38.17     485.29
 38.27     536.00
 38.37     502.69
 38.47     513.85
 38.57     493.57
 38.67     514.00
 38.77     491.51
 38.87     544.00
 38.97     502.00
 39.07     498.00
 39.17     527.00
 39.27     489.64
 39.37     472.91
 39.47     513.16
 39.57     509.00
 39.67     506.00
 39.77     487.00
 39.87     494.00
 39.97     495.00
 40.07     482.00
 40.17     523.00
 40.27     505.00
 40.37     486.00
 40.47     495.00
 40.57     492.00
 40.67     474.75
 40.77     548.96
 40.87     551.00
 40.97     492.00
 41.07     516.00
 41.17     483.00
 41.27     479.00
 41.37     545.88
 41.47     499.00
 41.57     527.00
 41.67     491.00
 41.77     476.00
 41.87     474.00
 41.97     497.00
 42.07     471.00
 42.17     523.00
 42.27     548.00
 42.37     620.00
 42.47     588.00
 42.57     593.98
 42.67     653.89
 42.77     596.00
 42.87     565.42
 42.97     539.00
 43.07     570.30
 43.17     547.74
 43.27     476.00
 43.37     511.00
 43.47     495.00
 43.57     505.00
 43.67     488.00
 43.77     447.00
 43.87     484.00
 43.97     535.36
 44.07     493.00
 44.17     530.24
 44.27     536.00
 44.37     480.51
 44.47     502.00
 44.57     538.00
 44.67     470.35
 44.77     523.00
 44.87     469.00
 44.97     527.00
 45.07     495.57
 45.17     526.00
 45.27     507.00
 45.37     466.60
 45.47     513.00
 45.57     504.00
 45.67     498.00
 45.77     543.07
 45.87     509.91
 45.97     525.00
 46.07     536.00
 46.17     507.00
 46.27     473.00
 46.37     521.12
 46.47     503.00
 46.57     517.00
 46.67     487.00
 46.77     519.00
 46.87     475.42
 46.97     544.00
 47.07     540.00
 47.17     549.00
 47.27     525.74
 47.37     504.00
 47.47     506.56
 47.57     566.00
 47.67     567.00
 47.77     555.10
 47.87     558.79
 47.97     598.04
 48.07     551.91
 48.17     556.01
 48.27     543.05
 48.37     522.00
 48.47     579.08
 48.57     498.20
 48.67     558.56
 48.77     508.00
 48.87     530.99
 48.97     589.98
 49.07     535.47
 49.17     547.00
 49.27     580.00
 49.37     660.00
 49.47     698.71
 49.57     770.00
 49.67     910.91
 49.77    1089.02
 49.87    1455.00
 49.97    1852.94
 50.07    2201.00
 50.17    2429.36
 50.27    2478.00
 50.37    2199.00
 50.47    1828.02
 50.57    1402.23
 50.67    1026.00
 50.77     844.25
 50.87     765.92
 50.97     661.00
 51.07     635.00
 51.17     648.33
 51.27     590.00
 51.37     591.56
 51.47     531.08
 51.57     528.84
 51.67     589.14
 51.77     568.00
 51.87     526.00
 51.97     556.84
 52.07     541.59
 52.17     560.96
 52.27     552.14
 52.37     541.19
 52.47     526.00
 52.57     587.32
 52.67     576.00
 52.77     599.00
 52.87     651.08
 52.97     711.00
 53.07     740.00
 53.17     957.00
 53.27    1047.99
 53.37    1132.64
 53.47    1200.00
 53.57    1204.00
 53.67    1096.00
 53.77    1018.68
 53.87     874.92
 53.97     789.00
 54.07     697.00
 54.17     636.00
 54.27     597.67
 54.37     590.83
 54.47     553.59
 54.57     584.00
 54.67     573.00
 54.77     568.77
 54.87     568.00
 54.97     531.19
 55.07     562.00
 55.17     571.00
 55.27     595.00
 55.37     517.20
 55.47     546.00
 55.57     556.00
 55.67     529.13
 55.77     550.05
 55.87     553.54
 55.97     643.98
 56.07     718.04
 56.17     726.73
 56.27     931.13
 56.37    1128.00
 56.47    1363.00
 56.57    1768.00
 56.67    2198.17
 56.77    2503.00
 56.87    2650.00
 56.97    2615.40
 57.07    2386.00
 57.17    2053.42
 57.27    1618.77
 57.37    1346.00
 57.47    1091.00
 57.57     859.00
 57.67     779.00
 57.77     704.49
 57.87     674.00
 57.97     721.00
 58.07     629.60
 58.17     759.99
 58.27     761.00
 58.37     839.30
 58.47     962.08
 58.57    1090.00
 58.67    1212.00
 58.77    1361.00
 58.87    1456.00
 58.97    1519.00
 59.07    1641.00
 59.17    1567.00
 59.27    1474.00
 59.37    1269.00
 59.47    1302.00
 59.57    1191.00
 59.67    1167.00
 59.77    1228.00
 59.87    1213.00
 59.97    1224.00
 60.07    1482.00
 60.17    1574.00
 60.27    1550.00
 60.37    1468.51
 60.47    1327.43
 60.57    1247.00
 60.67    1050.00
 60.77     898.00
 60.87     826.00
 60.97     692.00
 61.07     660.01
 61.17     636.00
 61.27     636.00
 61.37     633.00
 61.47     657.86
 61.57     711.22
 61.67     820.00
 61.77    1006.06
 61.87    1153.00
 61.97    1301.00
 62.07    1387.00
 62.17    1425.00
 62.27    1426.77
 62.37    1341.00
 62.47    1190.31
 62.57    1003.00
 62.67     884.00
 62.77     785.52
 62.87     670.88
 62.97     590.00
 63.07     580.00
 63.17     608.31
 63.27     563.21
 63.37     635.00
 63.47     583.00
 63.57     597.00
 63.67     593.00
 63.77     587.00
 63.87     598.19
 63.97     629.68
 64.07     796.00
 64.17     806.64
 64.27     855.00
 64.37     836.00
 64.47    1001.00
 64.57    1052.00
 64.67    1031.00
 64.77    1047.98
 64.87     947.00
 64.97     933.62
 65.07     813.00
 65.17     774.00
 65.27     758.23
 65.37     724.70
 65.47     651.00
 65.57     643.00
 65.67     625.00
 65.77     586.19
 65.87     563.30
 65.97     584.47
 66.07     563.00
 66.17     557.00
 66.27     538.00
 66.37     554.00
 66.47     528.38
 66.57     532.00
 66.67     578.04
 66.77     572.00
 66.87     592.00
 66.97     637.00
 67.07     649.00
 67.17     692.75
 67.27     789.00
 67.37     884.00
 67.47    1154.00
 67.57    1243.00
 67.67    1518.78
 67.77    1823.00
 67.87    2079.00
 67.97    2351.34
 68.07    2483.14
 68.17    2441.19
 68.27    2243.00
 68.37    2011.32
 68.47    1792.00
 68.57    1559.00
 68.67    1238.00
 68.77    1084.28
 68.87     923.80
 68.97     777.00
 69.07     685.00
 69.17     623.34
 69.27     568.43
 69.37     636.00
 69.47     584.80
 69.57     547.00
 69.67     575.00
 69.77     603.00
 69.87     649.00
 69.97     549.97
 70.07     528.39
 70.17     579.16
 70.27     553.00
 70.37     567.00
 70.47     557.00
 70.57     515.00
 70.67     598.11
 70.77     582.00
 70.87     610.00
 70.97     628.00
 71.07     655.00
 71.17     709.38
 71.27     812.00
 71.37     928.39
 71.47    1091.10
 71.57    1237.00
 71.67    1419.00
 71.77    1597.00
 71.87    1845.00
 71.97    1924.83
 72.07    1877.00
 72.17    1875.00
 72.27    1803.00
 72.37    1613.42
 72.47    1510.00
 72.57    1355.00
 72.67    1209.00
 72.77    1032.00
 72.87     922.00
 72.97     793.00
 73.07     786.89
 73.17     731.00
 73.27     676.00
 73.37     666.00
 73.47     603.00
 73.57     628.06
 73.67     565.00
 73.77     622.72
 73.87     604.00
 73.97     613.92
 74.07     579.58
 74.17     558.38
 74.27     620.00
 74.37     570.00
 74.47     550.64
 74.57     578.68
 74.67     606.00
 74.77     578.09
 74.87     575.78
 74.97     629.00
 75.07     554.40
 75.17     554.00
 75.27     562.00
 75.37     568.00
 75.47     597.95
 75.57     558.00
 75.67     567.97
 75.77     567.00
 75.87     619.00
 75.97     567.36
 76.07     671.33
 76.17     667.00
 76.27     660.00
 76.37     672.00
 76.47     753.81
 76.57     697.00
 76.67     695.00
 76.77     662.00
 76.87     702.32
 76.97     637.00
 77.07     627.79
 77.17     643.32
 77.27     564.00
 77.37     567.00
 77.47     554.00
 77.57     561.00
 77.67     554.89
 77.77     547.75
 77.87     575.19
 77.97     513.00
 78.07     538.00
 78.17     538.00
 78.27     531.00
 78.37     515.00
 78.47     533.00
 78.57     526.00
 78.67     531.00
 78.77     526.00
 78.87     535.00
 78.97     500.00
 79.07     545.55
 79.17     574.00
 79.27     594.00
 79.37     529.00
 79.47     525.92
 79.57     511.00
 79.67     511.00
 79.77     543.00
 79.87     565.00
 79.97     576.00
 80.07     537.98
 80.17     548.00
 80.27     529.00
 80.37     604.00
 80.47     588.92
 80.57     656.00
 80.67     641.00
 80.77     618.00
 80.87     690.76
 80.97     713.05
 81.07     690.00
 81.17     701.00
 81.27     758.00
 81.37     752.00
 81.47     773.00
 81.57     740.37
 81.67     697.00
 81.77     771.85
 81.87     716.00
 81.97     750.00
 82.07     709.73
 82.17     625.53
 82.27     629.09
 82.37     631.00
 82.47     584.00
 82.57     587.00
 82.67     605.00
 82.77     564.75
 82.87     569.00
 82.97     579.00
 83.07     533.11
 83.17     560.00
 83.27     557.57
 83.37     578.00
 83.47     532.26
 83.57     509.00
 83.67     546.00
 83.77     556.00
 83.87     592.00
 83.97     630.00
 84.07     554.00
 84.17     612.00
 84.27     514.00
 84.37     573.21
 84.47     528.66
 84.57     557.00
 84.67     539.40
 84.77     528.10
 84.87     516.00
 84.97     523.00
 85.07     533.00
 85.17     558.86
 85.27     513.93
 85.37     560.25
 85.47     497.42
 85.57     548.86
 85.67     555.32
 85.77     561.00
 85.87     518.21
 85.97     525.00
 86.07     527.00
 86.17     505.13
 86.27     515.53
 86.37     560.12
 86.47     566.00
 86.57     531.00
 86.67     532.96
 86.77     553.00
 86.87     609.00
 86.97     550.57
 87.07     625.00
 87.17     639.00
 87.27     669.00
 87.37     634.00
 87.47     644.00
 87.57     593.98
 87.67     631.00
 87.77     611.00
 87.87     598.39
 87.97     572.40
 88.07     580.00
 88.17     562.02
 88.27     566.72
 88.37     606.02
 88.47     604.49
 88.57     547.41
 88.67     561.00
 88.77     579.00
 88.87     603.53
 88.97     585.00
 89.07     550.03
 89.17     637.00
 89.27     601.00
 89.37     614.00
 89.47     622.16
 89.57     573.00
 89.67     517.00
 89.77     582.00
 89.87     585.00
 89.97     542.00
 90.07     507.00
 90.17     596.23
 90.27     534.00
 90.37     508.00
 90.47     523.00
 90.57     588.00
 90.67     525.93
 90.77     533.00
 90.87     500.91
 90.97     526.60
 91.07     537.00
 91.17     515.34
 91.27     576.00
 91.37     544.00
 91.47     528.15
 91.57     493.95
 91.67     550.00
 91.77     511.95
 91.87     523.00
 91.97     550.00
 92.07     525.00
 92.17     608.31
 92.27     588.00
 92.37     637.84
 92.47     650.00
 92.57     626.00
 92.67     681.00
 92.77     710.00
 92.87     725.00
 92.97     763.00
 93.07     742.00
 93.17     816.85
 93.27     821.00
 93.37     827.00
 93.47     808.00
 93.57     849.00
 93.67     781.09
 93.77     835.00
 93.87     852.00
 93.97     862.00
 94.07     852.84
 94.17     852.84
 94.27     902.00
 94.37     823.40
 94.47     908.22
 94.57     947.00
 94.67     913.00
 94.77     966.00
 94.87     924.27
 94.97     947.00
 95.07     919.00
 95.17     871.00
 95.27     794.00
 95.37     808.50
 95.47     782.00
 95.57     779.36
 95.67     767.00
 95.77     696.00
 95.87     687.69
 95.97     676.00
 96.07     680.00
 96.17     666.00
 96.27     713.00
 96.37     758.00
 96.47     831.00
 96.57     881.00
 96.67     898.00
 96.77    1019.74
 96.87    1130.80
 96.97    1103.73
 97.07    1238.09
 97.17    1328.00
 97.27    1412.99
 97.37    1434.00
 97.47    1491.00
 97.57    1369.62
 97.67    1430.00
 97.77    1447.18
 97.87    1314.00
 97.97    1324.25
 98.07    1179.00
 98.17    1110.89
 98.27    1143.46
 98.37     955.00
 98.47     962.57
 98.57     892.00
 98.67     856.00
 98.77     860.30
 98.87     768.20
 98.97     853.02
 99.07     777.33
 99.17     850.00
 99.27     960.00
 99.37     918.00
 99.47    1068.71
 99.57    1090.00
 99.67    1204.92
 99.77    1286.00
 99.87    1381.00
 99.97    1486.00
100.07    1653.00
100.17    1781.00
100.27    1820.22
100.37    2064.00
100.47    2023.24
100.57    2031.00
100.67    2071.00
100.77    2056.00
100.87    2051.00
100.97    1920.00
101.07    1966.00
101.17    1867.00
101.27    1826.00
101.37    1726.00
101.47    1615.00
101.57    1490.00
101.67    1504.78
101.77    1312.00
101.87    1274.87
101.97    1252.00
102.07    1204.01
102.17    1167.00
102.27    1196.32
102.37    1109.00
102.47    1072.14
102.57    1119.04
102.67    1027.88
102.77    1106.00
102.87     989.07
102.97    1024.00
103.07     906.00
103.17     896.00
103.27     841.00
103.37     820.00
103.47     802.00
103.57     726.41
103.67     741.00
103.77     702.00
103.87     651.00
103.97     637.00
104.07     601.00
104.17     574.00
104.27     591.00
104.37     570.00
104.47     540.00
104.57     548.00
104.67     582.00
104.77     562.00
104.87     571.00
104.97     516.75
105.07     561.00
105.17     497.53
105.27     557.00
105.37     537.00
105.47     597.00
105.57     554.79
105.67     569.00
105.77     566.00
105.87     534.48
105.97     572.00
106.07     616.24
106.17     583.69
106.27     599.00
106.37     604.23
106.47     635.51
106.57     663.88
106.67     649.99
106.77     677.00
106.87     638.00
106.97     670.00
107.07     682.76
107.17     672.00
107.27     749.08
107.37     650.00
107.47     676.00
107.57     727.00
107.67     712.61
107.77     667.55
107.87     688.49
107.97     680.45
108.07     725.00
108.17     691.00
108.27     698.93
108.37     694.00
108.47     681.00
108.57     686.00
108.67     719.00
108.77     655.80
108.87     725.00
108.97     730.74
109.07     665.81
109.17     672.00
109.27     682.00
109.37     656.89
109.47     619.00
109.57     652.00
109.67     655.00
109.77     580.32
109.87     623.00
109.97     597.00
110.07     553.42
110.17     526.45
110.27     592.58
110.37     554.48
110.47     609.00
110.57     561.00
110.67     576.58
110.77     517.00
110.87     575.19
110.97     522.36
111.07     600.00
111.17     499.00
111.27     527.00
111.37     528.00
111.47     532.07
111.57     583.14
111.67     518.00
111.77     524.00
111.87     557.28
111.97     552.00
112.07     595.38
112.17     546.00
112.27     539.00
112.37     539.12
112.47     621.00
112.57     629.44
112.67     604.00
112.77     646.00
112.87     643.46
112.97     588.00
113.07     641.86
113.17     632.00
113.27     711.00
113.37     788.37
113.47     725.66
113.57     808.87
113.67     841.00
113.77     823.00
113.87     895.82
113.97     944.00
114.07     997.00
114.17    1021.00
114.27    1121.00
114.37    1308.00
114.47    1329.00
114.57    1402.00
114.67    1575.00
114.77    1756.56
114.87    1889.00
114.97    1990.94
115.07    2399.00
115.17    2519.48
115.27    2864.95
115.37    3200.28
115.47    3406.00
115.57    3658.00
115.67    4243.51
115.77    4630.46
115.87    4753.00
115.97    5445.55
116.07    5693.47
116.17    5835.00
116.27    6230.00
116.37    6675.00
116.47    6890.00
116.57    6960.20
116.67    6778.85
116.77    7066.00
116.87    6848.00
116.97    6703.00
117.07    6257.23
117.17    6081.00
117.27    5658.00
117.37    5239.00
117.47    4974.00
117.57    4731.00
117.67    4334.90
117.77    3980.28
117.87    3688.00
117.97    3116.92
118.07    2883.00
118.17    2583.00
118.27    2274.00
118.37    1956.00
118.47    1747.00
118.57    1529.32
118.67    1416.18
118.77    1252.00
118.87    1151.00
118.97    1020.12
119.07     949.00
119.17     868.00
119.27     817.00
119.37     792.02
119.47     778.00
119.57     734.00
119.67     667.30
119.77     660.93
119.87     675.00
119.97     623.00
120.07     581.00
120.17     603.00
120.27     577.00
120.37     598.00
120.47     618.04
120.57     517.00
120.67     520.00
120.77     558.00
120.87     579.00
120.97     531.22
121.07     531.06
121.17     561.00
121.27     569.00
121.37     601.00
121.47     550.00
121.57     582.00
121.67     630.46
121.77     615.00
121.87     604.00
121.97     620.00
122.07     593.40
122.17     656.49
122.27     626.00
122.37     618.00
122.47     637.00
122.57     610.00
122.67     645.00
122.77     667.72
122.87     622.00
122.97     645.00
123.07     635.00
123.17     626.50
123.27     655.93
123.37     653.00
123.47     669.00
123.57     621.00
123.67     677.41
123.77     634.00
123.87     598.00
123.97     640.00
124.07     674.00
124.17     617.00
124.27     565.93
124.37     588.00
124.47     623.00
124.57     566.00
124.67     549.95
124.77     597.00
124.87     611.00
124.97     567.00
