  9.97     729.30
 10.07     776.84
 10.17     747.00
 10.27     751.73
 10.37     814.00
 10.47     759.00
 10.57     757.00
 10.67     723.69
 10.77     810.00
 10.87     714.00
 10.97     800.00
 11.07     769.00
 11.17     735.00
 11.27     745.00
 11.37     732.92
 11.47     771.00
 11.57     771.00
 11.67     815.00
 11.77     806.00
 11.87     850.00
 11.97     809.00
 12.07     848.00
 12.17     837.00
 12.27     851.02
 12.37     850.00
 12.47     855.26
 12.57     766.00
 12.67     790.00
 12.77     774.40
 12.87     739.00
 12.97     719.00
 13.07     704.00
 13.17     750.40
 13.27     715.00
 13.37     732.00
 13.47     681.30
 13.57     691.42
 13.67     775.29
 13.77     704.63
 13.87     672.00
 13.97     749.00
 14.07     710.00
 14.17     706.89
 14.27     684.00
 14.37     737.00
 14.47     714.00
 14.57     738.00
 14.67     714.26
 14.77     722.00
 14.87     724.85
 14.97     686.00
 15.07     695.02
 15.17     706.02
 15.27     682.00
 15.37     723.00
 15.47     690.00
 15.57     687.00
 15.67     716.12
 15.77     670.29
 15.87     676.00
 15.97     660.51
 16.07     708.00
 16.17     746.48
 16.27     672.00
 16.37     744.13
 16.47     746.33
 16.57     726.06
 16.67     732.84
 16.77     647.60
 16.87     701.00
 16.97     720.47
 17.07     704.00
 17.17     653.00
 17.27     638.05
 17.37     698.00
 17.47     670.00
 17.57     699.00
 17.67     672.00
 17.77     691.00
 17.87     704.00
 17.97     687.38
 18.07     667.00
 18.17     689.00
 18.27     641.00
 18.37     663.00
 18.47     682.00
 18.57     699.00
 18.67     626.00
 18.77     721.98
 18.87     688.00
 18.97     643.79
 19.07     724.30
 19.17     658.00
 19.27     671.00
 19.37     681.54
 19.47     666.00
 19.57     634.00
 19.67     647.00
 19.77     664.00
 19.87     688.00
 19.97     657.50
 20.07     651.00
 20.17     666.00
 20.27     638.25
 20.37     683.00
 20.47     711.99
 20.57     672.00
 20.67     647.33
 20.77     674.00
 20.87     655.00
 20.97     699.17
 21.07     642.00
 21.17     679.31
 21.27     659.00
 21.37     667.48
 21.47     710.67
 21.57     684.00
 21.67     689.00
 21.77     670.00
 21.87     715.75
 21.97     611.44
 22.07     666.39
 22.17     705.27
 22.27     616.00
 22.37     634.00
 22.47     681.01
 22.57     634.80
 22.67     632.34
 22.77     681.84
 22.87     701.00
 22.97     662.00
 23.07     639.00
 23.17     706.02
 23.27     668.05
 23.37     674.00
 23.47     699.00
 23.57     630.77
 23.67     677.00
 23.77     674.00
 23.87     616.00
 23.97     683.00
 24.07     613.30
 24.17     677.00
 24.27     637.57
 24.37     650.37
 24.47     681.00
 24.57     724.00
 24.67     686.00
 24.77     695.59
 24.87     739.00
 24.97     754.00
 25.07     729.00
 25.17     731.00
 25.27     739.00
 25.37     731.00
 25.47     711.00
 25.57     688.00
 25.67     661.49
 25.77     683.00
 25.87     663.00
 25.97     697.78
 26.07     648.00
 26.17     683.68
 26.27     704.00
 26.37     663.25
 26.47     764.00
 26.57     640.00
 26.67     684.00
 26.77     690.00
 26.87     682.11
 26.97     744.49
 27.07     692.00
 27.17     732.00
 27.27     759.28
 27.37     764.66
 27.47     830.00
 27.57     863.47
 27.67     898.00
 27.77     977.00
 27.87    1138.48
 27.97    1427.00
 28.07    2073.53
 28.17    3323.00
 28.27    5428.00
 28.37    7943.91
 28.47    9431.00
 28.57    9082.00
 28.67    6907.06
 28.77    4969.24
 28.87    4292.00
 28.97    4201.00
 29.07    4961.62
 29.17    5355.00
 29.27    5032.00
 29.37    4030.00
 29.47    2798.00
 29.57    1971.00
 29.67    1314.00
 29.77    1212.00
 29.87     973.17
 29.97     930.00
 30.07     888.68
 30.17     802.00
 30.27     831.00
 30.37     756.00
 30.47     787.00
 30.57     766.04
 30.67     746.00
 30.77     778.00
 30.87     784.00
 30.97     765.00
 31.07     843.00
 31.17     829.00
 31.27     810.74
 31.37     809.00
 31.47     771.93
 31.57     672.36
 31.67     676.00
 31.77     717.00
 31.87     723.00
 31.97     701.00
 32.07     685.80
 32.17     670.95
 32.27     663.00
 32.37     699.00
 32.47     628.00
 32.57     647.67
 32.67     643.29
 32.77     678.78
 32.87     641.99
 32.97     636.00
 33.07     673.00
 33.17     652.00
 33.27     646.00
 33.37     689.00
 33.47     700.00
 33.57     690.00
 33.67     689.24
 33.77     750.00
 33.87     787.00
 33.97     859.00
 34.07    1018.00
 34.17    1119.09
 34.27    1314.00
 34.37    1318.00
 34.47    1309.00
 34.57    1198.91
 34.67    1010.00
 34.77     836.00
 34.87     780.90
 34.97     743.00
 35.07     708.00
 35.17     727.00
 35.27     705.05
 35.37     640.43
 35.47     717.00
 35.57     625.21
 35.67     668.00
 35.77     668.00
 35.87     684.50
 35.97     648.18
 36.07     655.00
 36.17     625.00
 36.27     639.00
 36.37     651.00
 36.47     602.34
 36.57     651.46
 36.67     637.00
 36.77     619.00
 36.87     671.00
 36.97     647.00
 37.07     681.60
 37.17     659.00
 37.27     631.00
 37.37     648.00
 37.47     614.82
 37.57     660.00
 37.67     688.00
 37.77     671.00
 37.87     672.00
 37.97     718.00
 38.07     793.64
 38.17     776.00
 38.27     709.00
 38.37     791.21
 38.47     788.00
 38.57     776.00
 38.67     780.00
 38.77     731.00
 38.87     635.00
 38.97     630.01
 39.07     661.00
 39.17     597.00
 39.27     623.00
 39.37     613.00
 39.47     663.04
 39.57     610.00
 39.67     654.00
 39.77     602.23
 39.87     624.00
 39.97     638.00
 40.07     624.00
 40.17     561.00
 40.27     619.00
 40.37     586.83
 40.47     609.00
 40.57     652.52
 40.67     645.00
 40.77     610.00
 40.87     599.00
 40.97     630.00
 41.07     630.00
 41.17     665.49
 41.27     648.83
 41.37     604.00
 41.47     632.00
 41.57     621.00
 41.67     612.00
 41.77     618.00
 41.87     659.00
 41.97     585.00
 42.07     628.74
 42.17     642.00
 42.27     608.00
 42.37     684.96
 42.47     589.00
 42.57     675.34
 42.67     647.00
 42.77     659.05
 42.87     690.00
 42.97     737.00
 43.07     743.96
 43.17     733.00
 43.27     733.00
 43.37     714.00
 43.47     710.00
 43.57     703.76
 43.67     694.39
 43.77     694.91
 43.87     643.00
 43.97     668.00
 44.07     596.82
 44.17     616.15
 44.27     647.55
 44.37     589.00
 44.47     643.00
 44.57     664.00
 44.67     621.00
 44.77     588.00
 44.87     617.99
 44.97     654.00
 45.07     666.00
 45.17     667.00
 45.27     652.00
 45.37     616.66
 45.47     594.59
 45.57     685.00
 45.67     628.00
 45.77     621.56
 45.87     587.09
 45.97     644.00
 46.07     599.13
 46.17     648.00
 46.27     677.84
 46.37     659.00
 46.47     631.94
 46.57     606.00
 46.67     609.61
 46.77     666.00
 46.87     663.00
 46.97     613.00
 47.07     623.00
 47.17     623.00
 47.27     643.00
 47.37     627.03
 47.47     648.00
 47.57     666.00
 47.67     663.00
 47.77     655.00
 47.87     637.00
 47.97     712.00
 48.07     710.00
 48.17     719.00
 48.27     701.68
 48.37     763.34
 48.47     740.00
 48.57     687.04
 48.67     719.56
 48.77     677.00
 48.87     671.00
 48.97     706.00
 49.07     645.00
 49.17     675.00
 49.27     700.90
 49.37     643.95
 49.47     666.80
 49.57     671.61
 49.67     743.49
 49.77     793.00
 49.87     849.18
 49.97     899.00
 50.07    1226.91
 50.17    1574.45
 50.27    1883.15
 50.37    2401.00
 50.47    2851.00
 50.57    3258.00
 50.67    3225.00
 50.77    3128.00
 50.87    2636.00
 50.97    2148.00
 51.07    1641.00
 51.17    1303.00
 51.27    1007.19
 51.37     938.00
 51.47     885.54
 51.57     844.76
 51.67     851.00
 51.77     774.91
 51.87     734.00
 51.97     768.00
 52.07     777.00
 52.17     726.16
 52.27     725.00
 52.37     678.25
 52.47     698.00
 52.57     715.00
 52.67     714.00
 52.77     723.00
 52.87     744.00
 52.97     697.00
 53.07     705.23
 53.17     754.55
 53.27     819.00
 53.37     854.42
 53.47     852.00
 53.57     914.32
 53.67     984.00
 53.77    1125.90
 53.87    1249.00
 53.97    1325.00
 54.07    1344.00
 54.17    1363.25
 54.27    1213.00
 54.37    1161.00
 54.47    1011.00
 54.57     903.87
 54.67     848.00
 54.77     814.77
 54.87     808.24
 54.97     718.72
 55.07     699.00
 55.17     739.00
 55.27     687.40
 55.37     691.50
 55.47     727.31
 55.57     702.00
 55.67     699.00
 55.77     746.00
 55.87     719.95
 55.97     690.00
 56.07     714.00
 56.17     702.00
 56.27     724.99
 56.37     833.53
 56.47     818.00
 56.57     915.28
 56.67    1007.00
 56.77    1113.00
 56.87    1337.00
 56.97    1675.00
 57.07    2042.00
 57.17    2322.00
 57.27    2717.00
 57.37    2825.00
 57.47    2729.44
 57.57    2490.05
 57.67    2278.00
 57.77    1950.24
 57.87    1585.67
 57.97    1304.89
 58.07    1202.77
 58.17     995.00
 58.27     922.00
 58.37     875.00
 58.47     891.00
 58.57     858.52
 58.67     862.24
 58.77     926.00
 58.87     971.67
 58.97    1109.52
 59.07    1081.11
 59.17    1246.00
 59.27    1276.81
 59.37    1357.90
 59.47    1285.00
 59.57    1440.88
 59.67    1364.50
 59.77    1357.44
 59.87    1299.00
 59.97    1320.86
 60.07    1240.43
 60.17    1350.00
 60.27    1376.00
 60.37    1445.16
 60.47    1443.82
 60.57    1498.00
 60.67    1640.00
 60.77    1679.00
 60.87    1598.00
 60.97    1538.00
 61.07    1419.71
 61.17    1180.00
 61.27    1163.33
 61.37    1084.00
 61.47     977.54
 61.57     831.98
 61.67     906.62
 61.77     838.00
 61.87     909.00
 61.97     982.00
 62.07    1045.90
 62.17    1136.00
 62.27    1374.08
 62.37    1437.66
 62.47    1597.00
 62.57    1908.00
 62.67    1909.00
 62.77    1877.00
 62.87    1868.00
 62.97    1722.00
 63.07    1604.00
 63.17    1428.00
 63.27    1183.00
 63.37    1103.00
 63.47     930.00
 63.57     887.00
 63.67     826.00
 63.77     798.00
 63.87     780.60
 63.97     789.78
 64.07     847.00
 64.17     735.25
 64.27     769.70
 64.37     794.00
 64.47     828.00
 64.57     911.46
 64.67    1034.00
 64.77    1125.40
 64.87    1214.00
 64.97    1358.00
 65.07    1529.00
 65.17    1635.00
 65.27    1698.00
 65.37    1748.00
 65.47    1717.00
 65.57    1532.57
 65.67    1424.00
 65.77    1379.00
 65.87    1170.00
 65.97    1037.00
 66.07     987.31
 66.17     914.09
 66.27     885.00
 66.37     864.84
 66.47     767.59
 66.57     710.00
 66.67     792.50
 66.77     776.34
 66.87     703.00
 66.97     701.19
 67.07     732.70
 67.17     704.10
 67.27     775.00
 67.37     740.00
 67.47     793.00
 67.57     735.00
 67.67     846.00
 67.77     937.00
 67.87    1030.42
 67.97    1110.00
 68.07    1360.00
 68.17    1453.00
 68.27    1686.00
 68.37    1937.17
 68.47    2183.00
 68.57    2471.00
 68.67    2550.00
 68.77    2666.00
 68.87    2555.00
 68.97    2384.00
 69.07    2114.34
 69.17    1943.00
 69.27    1701.00
 69.37    1441.00
 69.47    1241.75
 69.57    1161.00
 69.67    1041.00
 69.77     941.00
 69.87     877.00
 69.97     786.26
 70.07     752.76
 70.17     799.00
 70.27     779.00
 70.37     732.00
 70.47     776.22
 70.57     710.00
 70.67     795.00
 70.77     757.94
 70.87     696.00
 70.97     723.32
 71.07     704.00
 71.17     784.17
 71.27     803.00
 71.37     767.00
 71.47     769.00
 71.57     780.09
 71.67     797.00
 71.77     925.00
 71.87    1038.49
 71.97    1083.00
 72.07    1137.00
 72.17    1354.00
 72.27    1488.00
 72.37    1761.00
 72.47    1914.92
 72.57    1981.17
 72.67    2003.00
 72.77    2069.00
 72.87    1975.79
 72.97    1886.00
 73.07    1733.56
 73.17    1655.59
 73.27    1389.00
 73.37    1247.00
 73.47    1118.00
 73.57     972.00
 73.67     876.70
 73.77     840.00
 73.87     805.00
 73.97     808.00
 74.07     801.51
 74.17     756.00
 74.27     719.00
 74.37     750.58
 74.47     714.00
 74.57     724.00
 74.67     717.00
 74.77     747.00
 74.87     686.93
 74.97     764.45
 75.07     732.00
 75.17     735.92
 75.27     715.00
 75.37     693.85
 75.47     750.64
 75.57     764.53
 75.67     745.00
 75.77     742.40
 75.87     701.00
 75.97     660.02
 76.07     733.00
 76.17     761.95
 76.27     751.00
 76.37     722.00
 76.47     792.56
 76.57     839.43
 76.67     823.63
 76.77     910.00
 76.87     945.00
 76.97    1051.00
 77.07    1095.06
 77.17    1045.00
 77.27    1144.00
 77.37    1095.45
 77.47    1132.73
 77.57    1012.23
 77.67    1034.00
 77.77     951.00
 77.87     910.35
 77.97     881.39
 78.07     810.00
 78.17     780.00
 78.27     802.00
 78.37     723.00
 78.47     676.00
 78.57     688.00
 78.67     695.00
 78.77     703.00
 78.87     658.00
 78.97     686.67
 79.07     640.00
 79.17     653.58
 79.27     703.00
 79.37     680.00
 79.47     614.67
 79.57     667.00
 79.67     674.60
 79.77     621.00
 79.87     655.00
 79.97     644.00
 80.07     642.62
 80.17     628.00
 80.27     691.00
 80.37     647.75
 80.47     695.34
 80.57     716.00
 80.67     790.00
 80.77     834.96
 80.87     907.00
 80.97     929.73
 81.07     945.41
 81.17     979.00
 81.27    1243.00
 81.37    1300.00
 81.47    1367.67
 81.57    1468.33
 81.67    1566.00
 81.77    1675.00
 81.87    1568.61
 81.97    1547.00
 82.07    1662.00
 82.17    1614.00
 82.27    1494.00
 82.37    1316.35
 82.47    1283.00
 82.57    1206.00
 82.67    1055.34
 82.77    1026.00
 82.87     932.00
 82.97     891.00
 83.07     784.00
 83.17     878.60
 83.27     832.05
 83.37     757.00
 83.47     719.89
 83.57     701.00
 83.67     773.34
 83.77     671.37
 83.87     644.00
 83.97     676.00
 84.07     717.00
 84.17     706.00
 84.27     700.00
 84.37     672.00
 84.47     657.00
 84.57     752.51
 84.67     672.00
 84.77     790.69
 84.87     730.00
 84.97     697.36
 85.07     707.18
 85.17     672.00
 85.27     667.00
 85.37     734.89
 85.47     659.00
 85.57     695.00
 85.67     636.65
 85.77     679.00
 85.87     655.00
 85.97     654.00
 86.07     700.00
 86.17     611.46
 86.27     658.00
 86.37     667.77
 86.47     641.00
 86.57     663.00
 86.67     707.00
 86.77     688.00
 86.87     691.00
 86.97     685.02
 87.07     657.89
 87.17     716.00
 87.27     698.32
 87.37     685.00
 87.47     715.00
 87.57     668.51
 87.67     696.71
 87.77     799.00
 87.87     726.00
 87.97     711.85
 88.07     775.38
 88.17     709.34
 88.27     790.00
 88.37     817.15
 88.47     734.95
 88.57     757.00
 88.67     725.57
 88.77     726.00
 88.87     698.00
 88.97     757.00
 89.07     672.00
 89.17     700.00
 89.27     727.00
 89.37     706.79
 89.47     766.00
 89.57     672.00
 89.67     736.34
 89.77     716.00
 89.87     709.00
 89.97     718.92
 90.07     684.13
 90.17     666.18
 90.27     756.00
 90.37     725.00
 90.47     717.00
 90.57     743.00
 90.67     724.00
 90.77     697.38
 90.87     667.00
 90.97     695.00
 91.07     673.40
 91.17     632.00
 91.27     644.71
 91.37     686.18
 91.47     693.80
 91.57     676.65
 91.67     607.00
 91.77     601.00
 91.87     622.00
 91.97     632.00
 92.07     609.00
 92.17     655.00
 92.27     657.00
 92.37     585.00
 92.47     640.71
 92.57     675.00
 92.67     595.00
 92.77     649.00
 92.87     645.00
 92.97     681.00
 93.07     710.00
 93.17     731.00
 93.27     719.06
 93.37     704.00
 93.47     706.00
 93.57     756.00
 93.67     714.79
 93.77     782.00
 93.87     783.00
 93.97     881.00
 94.07     880.86
 94.17     910.51
 94.27     862.00
 94.37     922.45
 94.47     921.00
 94.57     970.00
 94.67     946.00
 94.77     910.00
 94.87     998.95
 94.97    1039.00
 95.07    1028.07
 95.17    1034.00
 95.27    1095.75
 95.37    1032.83
 95.47    1023.05
 95.57    1153.99
 95.67    1051.05
 95.77    1073.89
 95.87    1056.00
 95.97    1039.00
 96.07    1034.00
 96.17    1059.00
 96.27    1015.00
 96.37    1010.74
 96.47    1013.00
 96.57     928.00
 96.67     906.55
 96.77     917.30
 96.87     818.07
 96.97     876.80
 97.07     895.00
 97.17     825.49
 97.27     947.33
 97.37     960.00
 97.47    1022.00
 97.57    1071.00
 97.67    1069.00
 97.77    1192.74
 97.87    1295.22
 97.97    1308.00
 98.07    1318.21
 98.17    1500.03
 98.27    1535.08
 98.37    1604.00
 98.47    1587.00
 98.57    1680.33
 98.67    1649.63
 98.77    1642.00
 98.87    1654.00
 98.97    1622.91
 99.07    1529.00
 99.17    1414.00
 99.27    1307.00
 99.37    1341.64
 99.47    1208.00
 99.57    1152.29
 99.67    1092.00
 99.77    1077.00
 99.87    1042.97
 99.97    1061.00
100.07    1021.00
100.17    1092.00
100.27    1020.69
100.37    1061.42
100.47    1219.00
100.57    1212.00
100.67    1307.20
100.77    1411.00
100.87    1516.00
100.97    1542.30
101.07    1659.00
101.17    1805.00
101.27    1809.69
101.37    1941.49
101.47    2090.00
101.57    2060.00
101.67    2124.03
101.77    2199.61
101.87    2239.00
101.97    2133.79
102.07    2127.00
102.17    2128.00
102.27    2083.00
102.37    2069.00
102.47    2051.15
102.57    1862.00
102.67    1881.00
102.77    1901.00
102.87    1695.00
102.97    1665.81
103.07    1636.56
103.17    1428.00
103.27    1486.00
103.37    1447.49
103.47    1372.00
103.57    1427.01
103.67    1385.32
103.77    1209.00
103.87    1286.37
103.97    1283.00
104.07    1186.00
104.17    1139.33
104.27    1145.67
104.37    1040.55
104.47    1050.70
104.57    1034.46
104.67    1007.00
104.77     937.00
104.87     815.44
104.97     875.00
105.07     761.90
105.17     787.00
105.27     775.00
105.37     764.00
105.47     763.00
105.57     683.00
105.67     743.00
105.77     730.00
105.87     635.01
105.97     715.00
106.07     689.00
106.17     621.13
106.27     603.00
106.37     600.70
106.47     632.95
106.57     592.56
106.67     622.41
106.77     638.01
106.87     668.00
106.97     660.00
107.07     691.00
107.17     626.69
107.27     686.55
107.37     689.00
107.47     759.66
107.57     736.49
107.67     706.00
107.77     744.00
107.87     762.00
107.97     744.09
108.07     799.00
108.17     769.00
108.27     780.00
108.37     803.00
108.47     826.00
108.57     837.00
108.67     763.00
108.77     781.93
108.87     823.35
108.97     800.00
109.07     811.00
109.17     872.17
109.27     780.00
109.37     768.00
109.47     829.20
109.57     777.00
109.67     774.55
109.77     752.00
109.87     788.00
109.97     865.77
110.07     836.64
110.17     815.00
110.27     782.00
110.37     816.00
110.47     831.00
110.57     802.00
110.67     848.15
110.77     823.00
110.87     722.00
110.97     798.00
111.07     754.00
111.17     796.72
111.27     723.00
111.37     778.00
111.47     718.00
111.57     749.00
111.67     668.93
111.77     647.53
111.87     644.74
111.97     715.95
112.07     659.17
112.17     654.00
112.27     645.00
112.37     642.00
112.47     638.00
112.57     673.43
112.67     620.00
112.77     699.00
112.87     668.00
112.97     681.00
113.07     671.00
113.17     632.00
113.27     611.97
113.37     641.00
113.47     623.46
113.57     658.00
113.67     643.00
113.77     670.76
113.87     669.00
113.97     636.00
114.07     672.06
114.17     677.16
114.27     714.00
114.37     745.00
114.47     710.90
114.57     757.00
114.67     660.00
114.77     740.10
114.87     797.00
114.97     849.00
115.07     803.00
115.17     837.00
115.27     888.00
115.37    1029.99
115.47     979.00
115.57    1107.00
115.67    1209.37
115.77    1253.79
115.87    1416.28
115.97    1567.00
116.07    1782.00
116.17    2032.00
116.27    2209.00
116.37    2499.00
116.47    2792.00
116.57    2936.43
116.67    3350.00
116.77    3676.00
116.87    4069.00
116.97    4368.00
117.07    4804.04
117.17    5314.40
117.27    5487.00
117.37    5974.00
117.47    6297.00
117.57    6840.26
117.67    6978.00
117.77    7311.48
117.87    7525.02
117.97    7665.00
118.07    7693.67
118.17    7511.77
118.27    7595.54
118.37    7474.00
118.47    7123.00
118.57    6934.00
118.67    6540.64
118.77    6177.00
118.87    5891.91
118.97    5599.00
119.07    5375.39
119.17    4833.00
119.27    4596.21
119.37    4326.00
119.47    3747.20
119.57    3458.00
119.67    3173.92
119.77    2864.93
119.87    2620.32
119.97    2334.92
120.07    2122.00
120.17    1961.73
120.27    1661.14
120.37    1623.00
120.47    1413.50
120.57    1296.57
120.67    1329.00
120.77    1178.46
120.87    1181.00
120.97    1112.00
121.07    1060.47
121.17    1010.00
121.27     933.00
121.37     843.98
121.47     832.00
121.57     855.00
121.67     813.00
121.77     814.00
121.87     737.00
121.97     755.41
122.07     796.80
122.17     706.00
122.27     705.00
122.37     743.00
122.47     698.00
122.57     738.00
122.67     743.00
122.77     720.00
122.87     699.00
122.97     720.00
123.07     729.00
123.17     743.00
123.27     717.00
123.37     757.00
123.47     741.00
123.57     733.41
123.67     739.00
123.77     752.00
123.87     794.10
123.97     744.24
124.07     785.20
124.17     819.36
124.27     847.00
124.37     869.83
124.47     847.78
124.57     811.00
124.67     838.00
124.77     874.00
124.87     843.00
124.97     948.00
