  9.97     612.00
 10.07     590.00
 10.17     601.00
 10.27     581.25
 10.37     610.00
 10.47     523.52
 10.57     598.00
 10.67     606.00
 10.77     597.38
 10.87     570.00
 10.97     570.00
 11.07     540.97
 11.17     570.00
 11.27     572.00
 11.37     556.22
 11.47     591.00
 11.57     576.00
 11.67     604.00
 11.77     608.00
 11.87     657.00
 11.97     653.90
 12.07     632.00
 12.17     727.08
 12.27     655.00
 12.37     619.00
 12.47     602.00
 12.57     606.00
 12.67     609.00
 12.77     550.00
 12.87     500.00
 12.97     586.00
 13.07     532.00
 13.17     547.00
 13.27     526.00
 13.37     602.52
 13.47     589.00
 13.57     556.00
 13.67     598.00
 13.77     605.29
 13.87     538.69
 13.97     531.00
 14.07     575.73
 14.17     500.00
 14.27     557.00
 14.37     565.10
 14.47     594.00
 14.57     603.00
 14.67     538.91
 14.77     554.00
 14.87     557.00
 14.97     586.20
 15.07     526.05
 15.17     549.00
 15.27     537.73
 15.37     584.00
 15.47     564.00
 15.57     588.60
 15.67     567.00
 15.77     539.00
 15.87     540.00
 15.97     599.30
 16.07     556.00
 16.17     496.00
 16.27     581.00
 16.37     601.00
 16.47     573.00
 16.57     554.12
 16.67     574.00
 16.77     539.00
 16.87     544.64
 16.97     583.00
 17.07     574.00
 17.17     549.00
 17.27     555.00
 17.37     534.00
 17.47     605.31
 17.57     533.00
 17.67     578.00
 17.77     597.34
 17.87     590.00
 17.97     563.24
 18.07     555.00
 18.17     553.00
 18.27     555.00
 18.37     524.95
 18.47     547.00
 18.57     558.38
 18.67     555.00
 18.77     563.00
 18.87     586.39
 18.97     573.61
 19.07     546.00
 19.17     529.00
 19.27     525.00
 19.37     565.00
 19.47     541.00
 19.57     575.00
 19.67     564.00
 19.77     586.00
 19.87     524.09
 19.97     541.00
 20.07     551.24
 20.17     556.00
 20.27     558.00
 20.37     528.00
 20.47     521.00
 20.57     526.00
 20.67     519.00
 20.77     553.67
 20.87     516.41
 20.97     602.00
 21.07     521.34
 21.17     519.00
 21.27     515.15
 21.37     588.71
 21.47     517.00
 21.57     538.00
 21.67     541.10
 21.77     527.00
 21.87     553.00
 21.97     574.16
 22.07     543.00
 22.17     539.35
 22.27     509.05
 22.37     534.00
 22.47     556.00
 22.57     564.00
 22.67     575.35
 22.77     550.00
 22.87     562.00
 22.97     573.83
 23.07     564.00
 23.17     549.00
 23.27     506.17
 23.37     582.00
 23.47     585.00
 23.57     533.66
 23.67     555.00
 23.77     567.66
 23.87     551.00
 23.97     558.00
 24.07     556.00
 24.17     533.00
 24.27     577.00
 24.37     611.00
 24.47     553.21
 24.57     619.00
 24.67     613.00
 24.77     629.37
 24.87     623.00
 24.97     642.05
 25.07     570.00
 25.17     613.00
 25.27     571.00
 25.37     572.00
 25.47     520.96
 25.57     558.00
 25.67     574.00
 25.77     567.11
 25.87     535.71
 25.97     585.00
 26.07     503.31
 26.17     523.00
 26.27     592.00
 26.37     540.00
 26.47     543.19
 26.57     534.78
 26.67     558.00
 26.77     498.52
 26.87     551.45
 26.97     581.00
 27.07     503.60
 27.17     568.00
 27.27     578.00
 27.37     597.00
 27.47     541.00
 27.57     584.00
 27.67     544.39
 27.77     591.00
 27.87     598.00
 27.97     675.00
 28.07     739.00
 28.17     916.38
 28.27     982.00
 28.37     945.00
 28.47     778.10
 28.57     659.00
 28.67     694.00
 28.77     740.00
 28.87     770.00
 28.97     852.00
 29.07     800.00
 29.17     697.86
 29.27     661.38
 29.37     624.00
 29.47     604.00
 29.57     583.00
 29.67     606.00
 29.77     594.00
 29.87     574.62
 29.97     559.51
 30.07     580.00
 30.17     598.00
 30.27     591.00
 30.37     584.02
 30.47     538.73
 30.57     541.00
 30.67     561.00
 30.77     588.00
 30.87     576.00
 30.97     581.00
 31.07     597.00
 31.17     569.00
 31.27     538.16
 31.37     584.00
 31.47     531.00
 31.57     546.00
 31.67     533.71
 31.77     533.00
 31.87     489.04
 31.97     523.00
 32.07     554.00
 32.17     565.76
 32.27     514.78
 32.37     492.80
 32.47     533.97
 32.57     539.75
 32.67     526.00
 32.77     533.00
 32.87     558.26
 32.97     533.84
 33.07     527.67
 33.17     568.88
 33.27     582.93
 33.37     556.58
 33.47     574.00
 33.57     563.00
 33.67     602.00
 33.77     726.00
 33.87     797.77
 33.97     937.00
 34.07    1110.00
 34.17    1041.49
 34.27     982.36
 34.37     739.00
 34.47     722.86
 34.57     582.00
 34.67     558.44
 34.77     591.20
 34.87     549.00
 34.97     564.15
 35.07     558.76
 35.17     495.00
 35.27     520.00
 35.37     519.00
 35.47     494.68
 35.57     512.00
 35.67     538.00
 35.77     521.00
 35.87     489.00
 35.97     554.00
 36.07     514.00
 36.17     488.21
 36.27     528.00
 36.37     464.00
 36.47     476.00
 36.57     530.00
 36.67     498.00
 36.77     543.00
 36.87     483.00
 36.97     484.00
 37.07     506.00
 37.17     536.25
 37.27     484.74
 37.37     546.72
 37.47     552.00
 37.57     515.74
 37.67     501.27
 37.77     505.76
 37.87     494.19
 37.97     517.00
 38.07     538.00
 38.17     512.00
 38.27     496.80
 38.37     517.49
 38.47     533.00
 38.57     508.05
 38.67     540.00
 38.77     494.00
 38.87     496.70
 38.97     531.44
 39.07     465.00
 39.17     456.00
 39.27     527.00
 39.37     532.73
 39.47     486.90
 39.57     473.00
 39.67     473.00
 39.77     500.00
 39.87     527.89
 39.97     494.00
 40.07     543.96
 40.17     513.00
 40.27     506.00
 40.37     469.00
 40.47     518.00
 40.57     455.00
 40.67     517.26
 40.77     545.85
 40.87     536.31
 40.97     474.90
 41.07     502.00
 41.17     501.00
 41.27     544.45
 41.37     493.00
 41.47     504.00
 41.57     497.00
 41.67     502.00
 41.77     504.00
 41.87     463.00
 41.97     522.00
 42.07     502.00
 42.17     520.63
 42.27     486.90
 42.37     538.00
 42.47     592.92
 42.57     591.00
 42.67     603.00
 42.77     634.19
 42.87     591.00
 42.97     542.00
 43.07     535.00
 43.17     500.26
 43.27     530.40
 43.37     505.00
 43.47     508.00
 43.57     481.00
 43.67     502.00
 43.77     432.00
 43.87     485.18
 43.97     499.00
 44.07     470.56
 44.17     516.96
 44.27     517.00
 44.37     492.00
 44.47     505.57
 44.57     532.00
 44.67     521.00
 44.77     507.00
 44.87     505.00
 44.97     519.33
 45.07     528.00
 45.17     519.05
 45.27     492.09
 45.37     483.63
 45.47     560.00
 45.57     483.49
 45.67     536.23
 45.77     545.36
 45.87     487.00
 45.97     520.00
 46.07     541.42
 46.17     505.23
 46.27     523.00
 46.37     489.03
 46.47     489.35
 46.57     512.45
 46.67     489.19
 46.77     501.00
 46.87     523.00
 46.97     481.61
 47.07     464.73
 47.17     478.00
 47.27     535.00
 47.37     475.00
 47.47     537.17
 47.57     524.97
 47.67     565.00
 47.77     558.66
 47.87     627.00
 47.97     603.00
 48.07     565.00
 48.17     586.10
 48.27     541.00
 48.37     558.00
 48.47     565.00
 48.57     553.00
 48.67     513.00
 48.77     509.00
 48.87     557.00
 48.97     545.00
 49.07     537.00
 49.17     560.00
 49.27     588.00
 49.37     640.31
 49.47     725.60
 49.57     708.47
 49.67     887.00
 49.77    1005.80
 49.87    1292.00
 49.97    1686.81
 50.07    2032.06
 50.17    2526.00
 50.27    2455.00
 50.37    2446.00
 50.47    2093.00
 50.57    1675.62
 50.67    1301.34
 50.77     919.00
 50.87     724.00
 50.97     664.00
 51.07     668.00
 51.17     581.00
 51.27     574.52
 51.37     578.00
 51.47     625.00
 51.57     511.40
 51.67     581.00
 51.77     546.81
 51.87     554.00
 51.97     575.00
 52.07     539.01
 52.17     511.00
 52.27     503.67
 52.37     538.00
 52.47     491.26
 52.57     539.72
 52.67     587.07
 52.77     625.00
 52.87     656.00
 52.97     647.00
 53.07     665.04
 53.17     781.64
 53.27     975.00
 53.37    1045.00
 53.47    1145.00
 53.57    1157.52
 53.67    1167.00
 53.77    1083.67
 53.87     939.00
 53.97     831.26
 54.07     736.00
 54.17     617.00
 54.27     564.25
 54.37     609.00
 54.47     526.79
 54.57     570.59
 54.67     523.14
 54.77     529.00
 54.87     524.00
 54.97     522.00
 55.07     533.00
 55.17     560.00
 55.27     556.00
 55.37     535.93
 55.47     512.00
 55.57     558.00
 55.67     545.00
 55.77     529.63
 55.87     563.78
 55.97     605.00
 56.07     597.00
 56.17     692.00
 56.27     753.28
 56.37     923.41
 56.47    1187.00
 56.57    1517.58
 56.67    1971.00
 56.77    2278.00
 56.87    2549.00
 56.97    2755.00
 57.07    2516.00
 57.17    2272.00
 57.27    1863.00
 57.37    1551.54
 57.47    1184.63
 57.57     966.00
 57.67     814.00
 57.77     701.69
 57.87     723.00
 57.97     666.00
 58.07     617.00
 58.17     658.00
 58.27     721.00
 58.37     821.00
 58.47     888.00
 58.57    1022.00
 58.67    1155.00
 58.77    1326.00
 58.87    1411.78
 58.97    1572.00
 59.07    1697.00
 59.17    1612.93
 59.27    1567.00
 59.37    1436.93
 59.47    1272.68
 59.57    1212.00
 59.67    1101.00
 59.77    1123.00
 59.87    1234.00
 59.97    1268.00
 60.07    1401.00
 60.17    1437.70
 60.27    1602.00
 60.37    1577.00
 60.47    1419.22
 60.57    1326.00
 60.67    1163.00
 60.77     967.00
 60.87     867.37
 60.97     783.46
 61.07     676.00
 61.17     623.76
 61.27     676.00
 61.37     652.08
 61.47     664.00
 61.57     731.00
 61.67     752.00
 61.77     890.00
 61.87     995.79
 61.97    1232.36
 62.07    1314.00
 62.17    1431.29
 62.27    1428.00
 62.37    1352.00
 62.47    1251.00
 62.57    1150.00
 62.67     974.00
 62.77     781.00
 62.87     734.00
 62.97     711.59
 63.07     654.55
 63.17     608.00
 63.27     537.00
 63.37     577.00
 63.47     566.00
 63.57     587.00
 63.67     579.25
 63.77     612.57
 63.87     595.03
 63.97     610.00
 64.07     645.01
 64.17     689.00
 64.27     796.00
 64.37     886.00
 64.47     885.07
 64.57    1023.00
 64.67    1053.00
 64.77    1014.21
 64.87     948.48
 64.97     943.00
 65.07     901.00
 65.17     871.00
 65.27     703.38
 65.37     677.00
 65.47     709.00
 65.57     651.25
 65.67     627.00
 65.77     539.00
 65.87     538.82
 65.97     589.77
 66.07     577.60
 66.17     555.01
 66.27     543.00
 66.37     489.00
 66.47     520.00
 66.57     525.00
 66.67     573.00
 66.77     570.00
 66.87     602.00
 66.97     604.00
 67.07     592.45
 67.17     621.93
 67.27     701.00
 67.37     729.53
 67.47     903.00
 67.57    1133.00
 67.67    1360.10
 67.77    1608.00
 67.87    1906.00
 67.97    2137.34
 68.07    2431.00
 68.17    2389.78
 68.27    2335.00
 68.37    2209.00
 68.47    1907.29
 68.57    1727.51
 68.67    1426.00
 68.77    1216.00
 68.87     903.00
 68.97     819.44
 69.07     698.00
 69.17     712.48
 69.27     613.00
 69.37     585.00
 69.47     582.00
 69.57     591.44
 69.67     566.00
 69.77     588.00
 69.87     578.00
 69.97     593.00
 70.07     527.00
 70.17     544.00
 70.27     595.47
 70.37     564.91
 70.47     553.38
 70.57     561.08
 70.67     539.00
 70.77     604.38
 70.87     585.00
 70.97     619.95
 71.07     667.75
 71.17     673.66
 71.27     772.48
 71.37     845.77
 71.47     980.00
 71.57    1133.46
 71.67    1287.00
 71.77    1539.33
 71.87    1607.00
 71.97    1862.00
 72.07    1911.66
 72.17    1844.17
 72.27    1909.42
 72.37    1825.27
 72.47    1665.58
 72.57    1392.14
 72.67    1364.00
 72.77    1191.00
 72.87    1119.99
 72.97    1043.87
 73.07     854.00
 73.17     803.00
 73.27     765.15
 73.37     690.00
 73.47     672.01
 73.57     673.35
 73.67     657.00
 73.77     584.00
 73.87     622.62
 73.97     572.00
 74.07     553.00
 74.17     610.00
 74.27     565.00
 74.37     599.00
 74.47     629.00
 74.57     620.00
 74.67     573.33
 74.77     612.00
 74.87     595.00
 74.97     574.77
 75.07     573.14
 75.17     579.55
 75.27     524.11
 75.37     589.97
 75.47     565.00
 75.57     555.00
 75.67     587.70
 75.77     556.00
 75.87     567.65
 75.97     560.00
 76.07     630.00
 76.17     652.00
 76.27     616.67
 76.37     634.82
 76.47     726.01
 76.57     685.51
 76.67     725.00
 76.77     715.00
 76.87     688.00
 76.97     702.75
 77.07     641.00
 77.17     576.00
 77.27     575.00
 77.37     534.01
 77.47     517.00
 77.57     500.84
 77.67     579.70
 77.77     514.00
 77.87     533.00
 77.97     543.00
 78.07     534.00
 78.17     477.68
 78.27     553.09
 78.37     518.00
 78.47     527.00
 78.57     525.00
 78.67     571.00
 78.77     519.23
 78.87     479.58
 78.97     492.53
 79.07     535.38
 79.17     543.38
 79.27     545.00
 79.37     515.00
 79.47     519.62
 79.57     520.00
 79.67     515.00
 79.77     500.00
 79.87     506.28
 79.97     524.00
 80.07     560.56
 80.17     582.77
 80.27     530.83
 80.37     557.00
 80.47     558.00
 80.57     592.55
 80.67     573.00
 80.77     560.00
 80.87     666.56
 80.97     656.00
 81.07     720.00
 81.17     726.00
 81.27     704.00
 81.37     692.17
 81.47     796.80
 81.57     760.00
 81.67     757.00
 81.77     675.64
 81.87     753.00
 81.97     689.00
 82.07     714.00
 82.17     691.75
 82.27     629.00
 82.37     625.00
 82.47     609.27
 82.57     601.00
 82.67     578.74
 82.77     561.00
 82.87     595.00
 82.97     510.00
 83.07     588.24
 83.17     529.00
 83.27     562.00
 83.37     524.00
 83.47     522.00
 83.57     511.00
 83.67     530.44
 83.77     513.00
 83.87     587.00
 83.97     613.00
 84.07     572.92
 84.17     530.00
 84.27     581.90
 84.37     581.30
 84.47     599.77
 84.57     573.00
 84.67     556.00
 84.77     544.00
 84.87     505.00
 84.97     509.00
 85.07     515.00
 85.17     498.00
 85.27     485.61
 85.37     488.00
 85.47     512.00
 85.57     521.00
 85.67     505.00
 85.77     526.00
 85.87     460.00
 85.97     478.00
 86.07     496.00
 86.17     532.36
 86.27     529.00
 86.37     525.00
 86.47     551.69
 86.57     527.00
 86.67     530.00
 86.77     550.00
 86.87     582.00
 86.97     611.00
 87.07     620.00
 87.17     549.14
 87.27     614.07
 87.37     672.00
 87.47     571.12
 87.57     576.46
 87.67     604.99
 87.77     623.00
 87.87     582.00
 87.97     640.00
 88.07     643.00
 88.17     626.00
 88.27     554.97
 88.37     575.76
 88.47     572.00
 88.57     534.00
 88.67     540.03
 88.77     560.22
 88.87     601.00
 88.97     567.00
 89.07     606.04
 89.17     577.00
 89.27     584.00
 89.37     584.97
 89.47     664.00
 89.57     573.00
 89.67     607.51
 89.77     566.00
 89.87     595.00
 89.97     579.00
 90.07     529.85
 90.17     539.00
 90.27     533.00
 90.37     529.00
 90.47     506.00
 90.57     538.81
 90.67     519.00
 90.77     534.00
 90.87     516.00
 90.97     517.00
 91.07     515.00
 91.17     557.08
 91.27     485.00
 91.37     510.00
 91.47     492.00
 91.57     546.00
 91.67     517.00
 91.77     481.00
 91.87     493.68
 91.97     547.33
 92.07     525.00
 92.17     529.00
 92.27     562.00
 92.37     558.00
 92.47     556.95
 92.57     593.00
 92.67     650.00
 92.77     628.82
 92.87     641.49
 92.97     719.00
 93.07     733.00
 93.17     739.00
 93.27     777.91
 93.37     821.00
 93.47     738.01
 93.57     843.00
 93.67     810.00
 93.77     798.00
 93.87     800.00
 93.97     775.32
 94.07     861.69
 94.17     819.00
 94.27     867.00
 94.37     891.63
 94.47     868.19
 94.57     873.00
 94.67     914.00
 94.77     946.91
 94.87     948.86
 94.97     922.71
 95.07     912.79
 95.17     906.00
 95.27     880.00
 95.37     859.00
 95.47     779.00
 95.57     733.42
 95.67     766.00
 95.77     735.21
 95.87     646.00
 95.97     667.00
 96.07     651.64
 96.17     638.18
 96.27     688.00
 96.37     704.00
 96.47     744.90
 96.57     774.03
 96.67     794.15
 96.77     837.19
 96.87     941.00
 96.97    1062.00
 97.07    1109.70
 97.17    1214.00
 97.27    1288.85
 97.37    1339.00
 97.47    1377.00
 97.57    1452.00
 97.67    1502.00
 97.77    1476.28
 97.87    1339.11
 97.97    1374.00
 98.07    1318.00
 98.17    1248.32
 98.27    1178.52
 98.37    1089.77
 98.47    1020.00
 98.57    1004.35
 98.67     926.00
 98.77     880.00
 98.87     842.00
 98.97     791.00
 99.07     800.00
 99.17     835.00
 99.27     878.16
 99.37     818.44
 99.47     860.81
 99.57     999.00
 99.67    1084.00
 99.77    1198.89
 99.87    1263.00
 99.97    1428.19
100.07    1489.00
100.17    1546.78
100.27    1742.00
100.37    1857.59
100.47    1918.00
100.57    2074.55
100.67    2024.00
100.77    2029.00
100.87    2152.00
100.97    2164.00
101.07    2125.00
101.17    2073.00
101.27    1872.00
101.37    1893.00
101.47    1797.00
101.57    1688.58
101.67    1612.00
101.77    1453.00
101.87    1383.00
101.97    1370.00
102.07    1303.00
102.17    1249.79
102.27    1186.00
102.37    1132.00
102.47    1120.00
102.57    1076.30
102.67    1092.00
102.77    1004.00
102.87     994.95
102.97    1017.00
103.07     921.00
103.17     922.00
103.27     905.57
103.37     851.00
103.47     812.00
103.57     765.22
103.67     739.15
103.77     718.00
103.87     680.00
103.97     627.00
104.07     614.00
104.17     554.66
104.27     623.00
104.37     557.23
104.47     556.00
104.57     534.98
104.67     529.00
104.77     501.48
104.87     540.00
104.97     502.81
105.07     528.00
105.17     525.50
105.27     529.00
105.37     488.23
105.47     491.00
105.57     533.00
105.67     534.00
105.77     502.99
105.87     528.73
105.97     577.18
106.07     561.00
106.17     580.26
106.27     581.00
106.37     595.00
106.47     562.00
106.57     565.00
106.67     621.00
106.77     619.00
106.87     568.00
106.97     656.96
107.07     650.00
107.17     679.00
107.27     706.44
107.37     640.92
107.47     654.00
107.57     656.00
107.67     714.00
107.77     661.75
107.87     722.81
107.97     664.00
108.07     641.72
108.17     718.00
108.27     653.00
108.37     717.51
108.47     643.00
108.57     682.00
108.67     669.86
108.77     640.99
108.87     618.00
108.97     687.00
109.07     704.00
109.17     674.57
109.27     691.00
109.37     657.00
109.47     668.00
109.57     647.00
109.67     656.00
109.77     637.00
109.87     618.48
109.97     625.00
110.07     597.00
110.17     638.00
110.27     573.00
110.37     610.00
110.47     600.00
110.57     560.01
110.67     546.00
110.77     499.00
110.87     562.38
110.97     517.50
111.07     512.51
111.17     516.68
111.27     484.93
111.37     514.08
111.47     541.00
111.57     556.98
111.67     565.00
111.77     553.00
111.87     500.23
111.97     539.60
112.07     509.30
112.17     561.00
112.27     558.72
112.37     570.15
112.47     581.00
112.57     547.85
112.67     612.00
112.77     559.00
112.87     590.00
112.97     637.00
113.07     693.00
113.17     703.00
113.27     702.21
113.37     725.91
113.47     764.00
113.57     790.00
113.67     777.11
113.77     815.37
113.87     964.00
113.97     909.45
114.07     957.00
114.17     973.00
114.27    1101.00
114.37    1147.60
114.47    1256.00
114.57    1315.64
114.67    1410.93
114.77    1587.00
114.87    1676.00
114.97    1902.00
115.07    2001.36
115.17    2295.54
115.27    2535.00
115.37    2757.00
115.47    3094.00
115.57    3350.00
115.67    3681.00
115.77    3982.00
115.87    4614.57
115.97    4783.00
116.07    5440.02
116.17    5588.00
116.27    5876.00
116.37    6293.40
116.47    6716.22
116.57    6901.00
116.67    7031.90
116.77    7101.83
116.87    7287.92
116.97    7028.00
117.07    6979.00
117.17    6722.04
117.27    6573.74
117.37    6214.00
117.47    5673.00
117.57    5234.00
117.67    4899.00
117.77    4695.78
117.87    4301.00
117.97    3949.00
118.07    3507.00
118.17    3236.00
118.27    2909.00
118.37    2440.00
118.47    2190.00
118.57    1914.00
118.67    1635.00
118.77    1378.00
118.87    1362.57
118.97    1132.00
119.07    1052.00
119.17    1001.00
119.27     855.00
119.37     835.00
119.47     765.00
119.57     747.63
119.67     714.26
119.77     723.99
119.87     660.75
119.97     687.24
120.07     667.83
120.17     660.53
120.27     606.00
120.37     551.73
120.47     572.00
120.57     586.71
120.67     603.59
120.77     530.00
120.87     593.96
120.97     552.46
121.07     606.00
121.17     567.09
121.27     573.00
121.37     541.45
121.47     552.02
121.57     561.00
121.67     598.00
121.77     554.00
121.87     571.12
121.97     566.00
122.07     567.60
122.17     600.00
122.27     627.32
122.37     589.00
122.47     635.29
122.57     632.00
122.67     560.00
122.77     631.00
122.87     647.00
122.97     634.73
123.07     686.00
123.17     661.16
123.27     617.00
123.37     642.00
123.47     675.12
123.57     650.00
123.67     639.76
123.77     616.49
123.87     608.00
123.97     615.00
124.07     580.00
124.17     608.00
124.27     627.00
124.37     589.26
124.47     559.00
124.57     617.00
124.67     616.00
124.77     654.00
124.87     634.00
124.97     552.54
