  9.97     585.00
 10.07     587.00
 10.17     529.60
 10.27     558.00
 10.37     551.48
 10.47     550.44
 10.57     538.00
 10.67     608.00
 10.77     574.00
 10.87     578.00
 10.97     599.00
 11.07     616.00
 11.17     551.00
 11.27     534.00
 11.37     577.00
 11.47     633.00
 11.57     598.00
 11.67     628.00
 11.77     551.39
 11.87     624.44
 11.97     694.00
 12.07     742.00
 12.17     713.96
 12.27     699.91
 12.37     670.00
 12.47     658.00
 12.57     567.92
 12.67     616.00
 12.77     580.35
 12.87     547.00
 12.97     618.79
 13.07     583.00
 13.17     587.00
 13.27     571.00
 13.37     521.00
 13.47     541.74
 13.57     533.00
 13.67     524.37
 13.77     587.00
 13.87     574.00
 13.97     572.00
 14.07     591.00
 14.17     573.00
 14.27     614.43
 14.37     586.00
 14.47     586.45
 14.57     601.04
 14.67     572.00
 14.77     541.00
 14.87     558.00
 14.97     544.00
 15.07     547.00
 15.17     534.87
 15.27     566.00
 15.37     584.00
 15.47     553.00
 15.57     549.00
 15.67     489.00
 15.77     583.59
 15.87     573.00
 15.97     542.44
 16.07     545.44
 16.17     572.42
 16.27     537.05
 16.37     537.31
 16.47     554.00
 16.57     521.22
 16.67     587.00
 16.77     543.97
 16.87     572.00
 16.97     541.00
 17.07     546.00
 17.17     600.20
 17.27     548.89
 17.37     551.00
 17.47     536.00
 17.57     586.38
 17.67     565.35
 17.77     545.74
 17.87     549.00
 17.97     516.54
 18.07     565.00
 18.17     549.00
 18.27     587.00
 18.37     547.00
 18.47     529.16
 18.57     530.62
 18.67     602.00
 18.77     587.80
 18.87     558.00
 18.97     570.00
 19.07     532.00
 19.17     594.52
 19.27     562.24
 19.37     594.38
 19.47     591.00
 19.57     547.99
 19.67     546.00
 19.77     544.00
 19.87     519.00
 19.97     597.22
 20.07     528.00
 20.17     566.97
 20.27     558.00
 20.37     558.00
 20.47     590.51
 20.57     560.00
 20.67     537.13
 20.77     517.00
 20.87     533.00
 20.97     593.37
 21.07     531.00
 21.17     545.00
 21.27     608.00
 21.37     519.00
 21.47     570.75
 21.57     550.00
 21.67     551.00
 21.77     565.00
 21.87     546.00
 21.97     571.00
 22.07     552.00
 22.17     538.00
 22.27     552.00
 22.37     523.00
 22.47     588.00
 22.57     559.00
 22.67     535.00
 22.77     528.92
 22.87     550.00
 22.97     522.82
 23.07     596.42
 23.17     585.61
 23.27     533.89
 23.37     568.89
 23.47     523.00
 23.57     574.00
 23.67     550.61
 23.77     587.88
 23.87     544.00
 23.97     568.00
 24.07     513.00
 24.17     555.00
 24.27     526.90
 24.37     557.00
 24.47     559.00
 24.57     594.00
 24.67     618.00
 24.77     603.75
 24.87     651.00
 24.97     584.00
 25.07     641.00
 25.17     558.00
 25.27     589.00
 25.37     534.17
 25.47     553.00
 25.57     534.90
 25.67     545.08
 25.77     554.00
 25.87     547.21
 25.97     588.00
 26.07     544.00
 26.17     557.00
 26.27     533.35
 26.37     549.00
 26.47     555.87
 26.57     559.51
 26.67     533.60
 26.77     580.59
 26.87     536.03
 26.97     556.00
 27.07     549.29
 27.17     569.00
 27.27     532.00
 27.37     589.03
 27.47     545.95
 27.57     562.00
 27.67     537.00
 27.77     563.00
 27.87     634.73
 27.97     682.00
 28.07     801.00
 28.17     917.23
 28.27     963.58
 28.37     943.20
 28.47     821.68
 28.57     689.00
 28.67     730.91
 28.77     711.00
 28.87     752.97
 28.97     806.00
 29.07     746.00
 29.17     701.00
 29.27     650.00
 29.37     652.00
 29.47     608.00
 29.57     550.03
 29.67     655.00
 29.77     611.62
 29.87     569.00
 29.97     539.77
 30.07     528.41
 30.17     530.76
 30.27     576.00
 30.37     546.00
 30.47     578.00
 30.57     520.50
 30.67     588.00
 30.77     607.00
 30.87     601.00
 30.97     615.00
 31.07     624.31
 31.17     547.00
 31.27     553.00
 31.37     559.00
 31.47     538.00
 31.57     497.81
 31.67     544.00
 31.77     532.00
 31.87     515.89
 31.97     550.00
 32.07     584.00
 32.17     526.50
 32.27     535.00
 32.37     574.00
 32.47     517.58
 32.57     551.00
 32.67     492.05
 32.77     514.70
 32.87     552.93
 32.97     550.00
 33.07     587.00
 33.17     568.78
 33.27     557.00
 33.37     501.19
 33.47     543.00
 33.57     632.00
 33.67     607.63
 33.77     746.74
 33.87     878.00
 33.97    1048.00
 34.07    1092.00
 34.17    1047.00
 34.27     896.00
 34.37     711.00
 34.47     655.00
 34.57     600.00
 34.67     561.00
 34.77     571.26
 34.87     553.53
 34.97     531.00
 35.07     518.00
 35.17     540.00
 35.27     539.93
 35.37     492.31
 35.47     546.00
 35.57     516.60
 35.67     531.00
 35.77     533.00
 35.87     486.00
 35.97     492.00
 36.07     547.99
 36.17     542.21
 36.27     472.86
 36.37     479.00
 36.47     522.53
 36.57     522.00
 36.67     532.21
 36.77     494.00
 36.87     514.00
 36.97     509.00
 37.07     522.00
 37.17     508.00
 37.27     561.33
 37.37     525.03
 37.47     522.00
 37.57     513.00
 37.67     488.00
 37.77     538.51
 37.87     500.61
 37.97     498.00
 38.07     475.00
 38.17     547.62
 38.27     543.83
 38.37     515.00
 38.47     473.68
 38.57     514.00
 38.67     487.00
 38.77     516.00
 38.87     486.00
 38.97     497.73
 39.07     488.00
 39.17     487.00
 39.27     480.26
 39.37     543.73
 39.47     467.90
 39.57     543.00
 39.67     528.00
 39.77     525.00
 39.87     549.91
 39.97     543.27
 40.07     520.00
 40.17     509.00
 40.27     495.34
 40.37     503.66
 40.47     477.00
 40.57     540.00
 40.67     486.00
 40.77     472.00
 40.87     517.00
 40.97     515.00
 41.07     494.00
 41.17     465.00
 41.27     497.49
 41.37     499.84
 41.47     484.00
 41.57     489.00
 41.67     481.00
 41.77     505.00
 41.87     486.00
 41.97     482.72
 42.07     501.00
 42.17     524.00
 42.27     561.00
 42.37     582.00
 42.47     579.00
 42.57     623.00
 42.67     621.00
 42.77     619.00
 42.87     559.00
 42.97     559.23
 43.07     554.00
 43.17     567.16
 43.27     499.00
 43.37     502.68
 43.47     485.00
 43.57     500.11
 43.67     507.00
 43.77     524.00
 43.87     504.00
 43.97     514.12
 44.07     518.00
 44.17     522.00
 44.27     519.75
 44.37     456.00
 44.47     479.00
 44.57     493.00
 44.67     500.00
 44.77     513.00
 44.87     509.00
 44.97     518.00
 45.07     478.00
 45.17     489.99
 45.27     457.00
 45.37     501.00
 45.47     504.00
 45.57     546.00
 45.67     532.00
 45.77     521.00
 45.87     519.50
 45.97     476.68
 46.07     484.00
 46.17     511.00
 46.27     557.00
 46.37     496.00
 46.47     494.00
 46.57     527.57
 46.67     512.56
 46.77     487.05
 46.87     512.84
 46.97     500.00
 47.07     535.84
 47.17     512.00
 47.27     539.00
 47.37     532.00
 47.47     535.00
 47.57     514.23
 47.67     559.98
 47.77     549.58
 47.87     559.19
 47.97     537.00
 48.07     569.83
 48.17     544.90
 48.27     539.00
 48.37     556.34
 48.47     542.00
 48.57     501.26
 48.67     521.78
 48.77     498.58
 48.87     590.42
 48.97     548.00
 49.07     561.48
 49.17     595.03
 49.27     641.00
 49.37     701.00
 49.47     673.00
 49.57     757.00
 49.67     906.00
 49.77    1117.00
 49.87    1393.26
 49.97    1854.00
 50.07    2154.00
 50.17    2512.00
 50.27    2534.78
 50.37    2312.16
 50.47    1897.00
 50.57    1496.00
 50.67    1067.00
 50.77     832.59
 50.87     702.00
 50.97     630.87
 51.07     617.57
 51.17     700.00
 51.27     593.00
 51.37     602.00
 51.47     607.00
 51.57     591.04
 51.67     548.00
 51.77     549.00
 51.87     550.77
 51.97     554.46
 52.07     563.00
 52.17     562.82
 52.27     504.00
 52.37     520.00
 52.47     605.00
 52.57     575.68
 52.67     542.25
 52.77     604.00
 52.87     655.00
 52.97     708.00
 53.07     821.00
 53.17     906.00
 53.27    1078.00
 53.37    1107.69
 53.47    1151.00
 53.57    1160.79
 53.67    1063.00
 53.77    1028.00
 53.87     857.11
 53.97     746.00
 54.07     665.23
 54.17     634.00
 54.27     613.00
 54.37     602.00
 54.47     601.00
 54.57     562.00
 54.67     522.28
 54.77     494.57
 54.87     540.86
 54.97     544.00
 55.07     551.00
 55.17     577.31
 55.27     587.00
 55.37     580.79
 55.47     567.00
 55.57     563.55
 55.67     597.00
 55.77     594.84
 55.87     600.00
 55.97     599.00
 56.07     705.00
 56.17     768.80
 56.27     855.00
 56.37    1180.38
 56.47    1468.00
 56.57    1692.00
 56.67    2147.00
 56.77    2527.15
 56.87    2536.00
 56.97    2642.00
 57.07    2436.00
 57.17    2105.00
 57.27    1627.00
 57.37    1313.00
 57.47     975.27
 57.57     863.00
 57.67     779.37
 57.77     732.00
 57.87     632.85
 57.97     688.54
 58.07     721.00
 58.17     699.92
 58.27     776.28
 58.37     876.00
 58.47     976.12
 58.57    1147.00
 58.67    1233.00
 58.77    1427.00
 58.87    1423.18
 58.97    1594.00
 59.07    1584.00
 59.17    1523.00
 59.27    1490.00
 59.37    1345.00
 59.47    1194.79
 59.57    1177.20
 59.67    1135.00
 59.77    1142.00
 59.87    1130.52
 59.97    1348.00
 60.07    1506.00
 60.17    1508.63
 60.27    1590.00
 60.37    1554.69
 60.47    1443.00
 60.57    1289.75
 60.67    1117.00
 60.77     970.00
 60.87     754.00
 60.97     693.00
 61.07     647.00
 61.17     640.00
 61.27     630.00
 61.37     678.28
 61.47     699.00
 61.57     807.00
 61.67     875.47
 61.77    1027.40
 61.87    1167.55
 61.97    1154.00
 62.07    1413.00
 62.17    1423.71
 62.27    1354.00
 62.37    1397.44
 62.47    1232.00
 62.57    1053.13
 62.67     934.00
 62.77     832.00
 62.87     689.86
 62.97     593.83
 63.07     593.00
 63.17     577.30
 63.27     556.40
 63.37     524.00
 63.47     589.00
 63.57     534.10
 63.67     583.00
 63.77     588.00
 63.87     646.00
 63.97     633.00
 64.07     740.00
 64.17     720.00
 64.27     779.83
 64.37     876.00
 64.47    1003.08
 64.57     964.00
 64.67     998.00
 64.77     999.41
 64.87     898.00
 64.97     907.11
 65.07     888.30
 65.17     764.00
 65.27     710.00
 65.37     642.66
 65.47     655.00
 65.57     648.00
 65.67     644.52
 65.77     595.00
 65.87     574.00
 65.97     532.00
 66.07     566.00
 66.17     556.00
 66.27     558.55
 66.37     583.06
 66.47     559.00
 66.57     585.51
 66.67     588.00
 66.77     553.00
 66.87     555.00
 66.97     583.00
 67.07     618.00
 67.17     647.55
 67.27     818.72
 67.37     856.00
 67.47    1002.34
 67.57    1240.00
 67.67    1483.50
 67.77    1746.00
 67.87    1995.00
 67.97    2264.00
 68.07    2430.00
 68.17    2461.00
 68.27    2269.25
 68.37    2111.00
 68.47    1823.00
 68.57    1549.00
 68.67    1277.00
 68.77    1050.68
 68.87     853.00
 68.97     786.00
 69.07     685.00
 69.17     657.88
 69.27     644.00
 69.37     617.13
 69.47     629.00
 69.57     576.45
 69.67     591.84
 69.77     608.00
 69.87     562.37
 69.97     598.00
 70.07     555.00
 70.17     558.00
 70.27     547.06
 70.37     578.00
 70.47     582.00
 70.57     524.41
 70.67     533.00
 70.77     560.56
 70.87     579.50
 70.97     640.00
 71.07     653.00
 71.17     737.00
 71.27     775.43
 71.37     966.00
 71.47    1049.00
 71.57    1187.00
 71.67    1433.00
 71.77    1647.77
 71.87    1692.11
 71.97    1870.00
 72.07    1936.00
 72.17    1868.00
 72.27    1788.00
 72.37    1617.00
 72.47    1497.00
 72.57    1284.16
 72.67    1193.18
 72.77    1032.00
 72.87    1002.39
 72.97     877.00
 73.07     785.00
 73.17     821.38
 73.27     706.00
 73.37     719.39
 73.47     644.00
 73.57     608.00
 73.67     658.22
 73.77     572.00
 73.87     605.80
 73.97     568.00
 74.07     545.99
 74.17     637.00
 74.27     644.00
 74.37     625.00
 74.47     642.00
 74.57     603.00
 74.67     642.00
 74.77     585.12
 74.87     535.32
 74.97     572.00
 75.07     542.99
 75.17     593.60
 75.27     594.00
 75.37     569.00
 75.47     600.00
 75.57     544.47
 75.67     562.00
 75.77     594.00
 75.87     541.95
 75.97     622.00
 76.07     608.00
 76.17     674.70
 76.27     661.89
 76.37     742.00
 76.47     710.64
 76.57     682.52
 76.67     728.00
 76.77     666.73
 76.87     643.00
 76.97     592.00
 77.07     667.92
 77.17     568.00
 77.27     568.00
 77.37     540.63
 77.47     488.00
 77.57     556.00
 77.67     533.00
 77.77     530.00
 77.87     513.00
 77.97     506.00
 78.07     534.00
 78.17     535.00
 78.27     531.00
 78.37     462.00
 78.47     546.00
 78.57     525.00
 78.67     530.00
 78.77     546.00
 78.87     503.00
 78.97     524.00
 79.07     541.00
 79.17     503.00
 79.27     519.00
 79.37     506.00
 79.47     502.00
 79.57     559.24
 79.67     544.00
 79.77     507.68
 79.87     535.00
 79.97     512.00
 80.07     566.00
 80.17     600.00
 80.27     564.00
 80.37     580.38
 80.47     562.00
 80.57     635.27
 80.67     624.00
 80.77     639.00
 80.87     649.00
 80.97     676.32
 81.07     772.00
 81.17     757.77
 81.27     763.00
 81.37     769.00
 81.47     757.00
 81.57     763.00
 81.67     789.00
 81.77     715.00
 81.87     703.00
 81.97     638.00
 82.07     590.00
 82.17     672.00
 82.27     646.63
 82.37     565.00
 82.47     614.00
 82.57     548.30
 82.67     570.72
 82.77     591.10
 82.87     531.83
 82.97     597.52
 83.07     543.00
 83.17     534.00
 83.27     525.00
 83.37     574.42
 83.47     565.00
 83.57     574.00
 83.67     559.00
 83.77     530.11
 83.87     542.00
 83.97     603.52
 84.07     576.00
 84.17     563.00
 84.27     560.00
 84.37     559.00
 84.47     557.00
 84.57     521.00
 84.67     575.66
 84.77     577.15
 84.87     531.00
 84.97     555.19
 85.07     567.00
 85.17     505.00
 85.27     499.99
 85.37     536.95
 85.47     556.11
 85.57     491.35
 85.67     545.00
 85.77     559.00
 85.87     547.00
 85.97     550.00
 86.07     571.92
 86.17     550.00
 86.27     545.00
 86.37     558.00
 86.47     588.67
 86.57     592.77
 86.67     588.31
 86.77     602.15
 86.87     543.62
 86.97     576.35
 87.07     640.00
 87.17     682.00
 87.27     577.09
 87.37     644.00
 87.47     602.50
 87.57     638.00
 87.67     674.00
 87.77     614.00
 87.87     650.00
 87.97     577.00
 88.07     539.30
 88.17     600.14
 88.27     588.00
 88.37     555.00
 88.47     590.00
 88.57     545.36
 88.67     592.00
 88.77     584.01
 88.87     603.00
 88.97     546.00
 89.07     561.00
 89.17     618.00
 89.27     623.00
 89.37     581.05
 89.47     601.00
 89.57     560.00
 89.67     598.76
 89.77     613.00
 89.87     516.00
 89.97     541.00
 90.07     539.00
 90.17     515.10
 90.27     580.59
 90.37     511.00
 90.47     540.67
 90.57     521.00
 90.67     489.39
 90.77     566.22
 90.87     523.98
 90.97     570.36
 91.07     523.00
 91.17     510.00
 91.27     536.80
 91.37     486.46
 91.47     511.00
 91.57     504.00
 91.67     546.46
 91.77     534.02
 91.87     516.00
 91.97     545.89
 92.07     522.41
 92.17     594.33
 92.27     563.00
 92.37     564.88
 92.47     630.00
 92.57     597.91
 92.67     706.00
 92.77     688.00
 92.87     732.00
 92.97     750.85
 93.07     781.00
 93.17     772.00
 93.27     824.00
 93.37     863.00
 93.47     837.33
 93.57     798.00
 93.67     836.00
 93.77     818.97
 93.87     834.00
 93.97     857.00
 94.07     872.09
 94.17     820.00
 94.27     939.00
 94.37     838.00
 94.47     880.00
 94.57     857.21
 94.67     913.00
 94.77     877.00
 94.87     920.00
 94.97     915.00
 95.07     900.35
 95.17     904.00
 95.27     850.00
 95.37     820.00
 95.47     803.76
 95.57     735.21
 95.67     744.00
 95.77     695.77
 95.87     639.41
 95.97     649.00
 96.07     647.00
 96.17     648.75
 96.27     767.01
 96.37     741.00
 96.47     768.00
 96.57     823.00
 96.67     936.00
 96.77     953.33
 96.87     999.00
 96.97    1201.00
 97.07    1181.00
 97.17    1309.00
 97.27    1382.00
 97.37    1459.83
 97.47    1412.00
 97.57    1360.99
 97.67    1371.10
 97.77    1381.00
 97.87    1330.39
 97.97    1330.83
 98.07    1198.00
 98.17    1155.00
 98.27    1037.00
 98.37    1019.00
 98.47     889.26
 98.57     840.00
 98.67     855.00
 98.77     805.62
 98.87     855.02
 98.97     751.00
 99.07     783.85
 99.17     838.52
 99.27     857.00
 99.37     884.14
 99.47     956.89
 99.57    1102.31
 99.67    1110.58
 99.77    1292.94
 99.87    1331.00
 99.97    1515.00
100.07    1571.44
100.17    1774.02
100.27    1883.00
100.37    1999.64
100.47    2050.00
100.57    2044.00
100.67    2089.96
100.77    2105.00
100.87    2012.45
100.97    1969.89
101.07    1881.99
101.17    1947.51
101.27    1794.00
101.37    1696.02
101.47    1592.00
101.57    1499.00
101.67    1473.00
101.77    1321.00
101.87    1252.09
101.97    1281.19
102.07    1154.00
102.17    1148.00
102.27    1146.00
102.37    1051.99
102.47    1079.00
102.57    1082.00
102.67    1014.89
102.77    1061.00
102.87     988.00
102.97     977.00
103.07     901.00
103.17     860.00
103.27     839.93
103.37     808.00
103.47     781.00
103.57     733.22
103.67     727.00
103.77     705.65
103.87     662.00
103.97     628.00
104.07     625.00
104.17     561.00
104.27     564.75
104.37     555.06
104.47     533.00
104.57     548.00
104.67     554.00
104.77     490.45
104.87     578.00
104.97     510.68
105.07     522.47
105.17     538.00
105.27     534.00
105.37     545.00
105.47     525.00
105.57     560.00
105.67     526.95
105.77     595.33
105.87     549.00
105.97     547.00
106.07     605.00
106.17     569.00
106.27     624.00
106.37     569.00
106.47     606.00
106.57     644.79
106.67     668.59
106.77     607.68
106.87     668.00
106.97     643.05
107.07     652.00
107.17     711.00
107.27     694.00
107.37     667.96
107.47     695.55
107.57     656.00
107.67     657.00
107.77     693.00
107.87     744.00
107.97     662.00
108.07     703.46
108.17     690.05
108.27     737.15
108.37     656.00
108.47     714.00
108.57     704.21
108.67     693.00
108.77     709.00
108.87     679.00
108.97     681.41
109.07     633.83
109.17     725.84
109.27     719.00
109.37     699.00
109.47     642.00
109.57     627.00
109.67     612.00
109.77     623.00
109.87     604.00
109.97     559.95
110.07     627.00
110.17     609.00
110.27     583.56
110.37     554.00
110.47     575.00
110.57     520.91
110.67     577.00
110.77     542.00
110.87     571.00
110.97     527.00
111.07     513.14
111.17     563.74
111.27     531.80
111.37     553.00
111.47     584.00
111.57     539.00
111.67     573.69
111.77     527.77
111.87     542.00
111.97     573.00
112.07     549.00
112.17     554.00
112.27     524.00
112.37     605.00
112.47     606.14
112.57     639.09
112.67     590.00
112.77     620.00
112.87     689.71
112.97     636.00
113.07     646.00
113.17     666.00
113.27     680.39
113.37     732.00
113.47     753.00
113.57     786.00
113.67     878.50
113.77     872.00
113.87     881.03
113.97    1026.00
114.07    1039.00
114.17    1093.14
114.27    1163.37
114.37    1299.46
114.47    1403.40
114.57    1479.02
114.67    1504.54
114.77    1701.00
114.87    1838.00
114.97    2112.00
115.07    2267.44
115.17    2582.00
115.27    2805.93
115.37    3121.77
115.47    3411.91
115.57    3896.70
115.67    4063.00
115.77    4390.00
115.87    4875.26
115.97    5134.00
116.07    5547.00
116.17    5921.00
116.27    6262.58
116.37    6632.00
116.47    6785.57
116.57    6967.00
116.67    6936.00
116.77    7050.00
116.87    6832.00
116.97    6554.19
117.07    6490.99
117.17    6241.66
117.27    5595.00
117.37    5520.79
117.47    4952.00
117.57    4556.73
117.67    4320.00
117.77    3980.00
117.87    3521.88
117.97    3323.00
118.07    2845.00
118.17    2589.38
118.27    2255.60
118.37    1943.04
118.47    1828.36
118.57    1610.00
118.67    1366.00
118.77    1253.00
118.87    1051.00
118.97    1078.21
119.07     959.00
119.17     882.00
119.27     849.00
119.37     829.15
119.47     703.00
119.57     757.20
119.67     716.00
119.77     715.00
119.87     663.00
119.97     619.00
120.07     656.00
120.17     563.00
120.27     641.03
120.37     560.00
120.47     579.00
120.57     554.00
120.67     562.00
120.77     528.00
120.87     528.05
120.97     569.00
121.07     535.10
121.17     611.63
121.27     519.00
121.37     543.42
121.47     571.27
121.57     574.00
121.67     600.00
121.77     590.00
121.87     612.00
121.97     615.00
122.07     642.00
122.17     601.00
122.27     634.00
122.37     631.00
122.47     597.11
122.57     629.00
122.67     652.00
122.77     629.00
122.87     626.65
122.97     635.37
123.07     663.00
123.17     653.00
123.27     686.73
123.37     608.00
123.47     718.00
123.57     609.00
123.67     639.00
123.77     670.00
123.87     570.84
123.97     653.00
124.07     616.41
124.17     615.00
124.27     617.00
124.37     596.00
124.47     608.00
124.57     577.00
124.67     568.50
124.77     565.00
124.87     566.00
124.97     574.00
