  9.97     720.00
 10.07     698.00
 10.17     688.00
 10.27     710.00
 10.37     670.00
 10.47     662.00
 10.57     713.00
 10.67     699.00
 10.77     651.01
 10.87     685.00
 10.97     623.02
 11.07     689.00
 11.17     674.00
 11.27     686.00
 11.37     682.00
 11.47     734.00
 11.57     679.83
 11.67     710.88
 11.77     708.00
 11.87     715.00
 11.97     682.98
 12.07     673.24
 12.17     831.00
 12.27     764.29
 12.37     770.00
 12.47     806.32
 12.57     683.00
 12.67     704.99
 12.77     664.47
 12.87     640.57
 12.97     659.00
 13.07     688.85
 13.17     629.13
 13.27     567.00
 13.37     637.00
 13.47     635.00
 13.57     636.00
 13.67     627.00
 13.77     631.00
 13.87     613.00
 13.97     650.00
 14.07     635.00
 14.17     658.00
 14.27     615.00
 14.37     627.00
 14.47     588.00
 14.57     620.00
 14.67     663.00
 14.77     615.65
 14.87     672.00
 14.97     539.00
 15.07     627.25
 15.17     588.00
 15.27     580.00
 15.37     663.00
 15.47     631.00
 15.57     657.69
 15.67     636.00
 15.77     614.00
 15.87     655.00
 15.97     580.00
 16.07     653.61
 16.17     597.08
 16.27     650.00
 16.37     609.00
 16.47     658.00
 16.57     620.00
 16.67     622.00
 16.77     634.00
 16.87     594.00
 16.97     628.00
 17.07     628.51
 17.17     648.71
 17.27     637.00
 17.37     600.07
 17.47     630.00
 17.57     586.00
 17.67     606.00
 17.77     665.00
 17.87     642.38
 17.97     568.00
 18.07     665.00
 18.17     584.00
 18.27     597.00
 18.37     567.00
 18.47     636.00
 18.57     617.00
 18.67     586.74
 18.77     605.00
 18.87     585.00
 18.97     606.00
 19.07     585.00
 19.17     634.78
 19.27     583.00
 19.37     608.36
 19.47     604.00
 19.57     604.00
 19.67     650.08
 19.77     566.55
 19.87     560.00
 19.97     562.00
 20.07     604.00
 20.17     633.07
 20.27     566.00
 20.37     600.00
 20.47     595.00
 20.57     563.59
 20.67     600.17
 20.77     605.00
 20.87     564.00
 20.97     582.36
 21.07     578.00
 21.17     586.56
 21.27     627.00
 21.37     661.00
 21.47     555.00
 21.57     583.00
 21.67     664.00
 21.77     593.00
 21.87     629.60
 21.97     583.61
 22.07     593.25
 22.17     576.00
 22.27     632.00
 22.37     584.26
 22.47     597.00
 22.57     595.00
 22.67     572.00
 22.77     635.00
 22.87     612.57
 22.97     651.28
 23.07     630.94
 23.17     574.57
 23.27     640.03
 23.37     560.43
 23.47     603.00
 23.57     568.04
 23.67     644.73
 23.77     644.00
 23.87     575.95
 23.97     664.00
 24.07     573.02
 24.17     650.69
 24.27     634.00
 24.37     610.97
 24.47     654.39
 24.57     662.28
 24.67     689.00
 24.77     690.00
 24.87     749.00
 24.97     704.00
 25.07     666.49
 25.17     650.00
 25.27     693.57
 25.37     633.93
 25.47     649.00
 25.57     624.00
 25.67     641.00
 25.77     611.00
 25.87     577.00
 25.97     641.00
 26.07     621.00
 26.17     659.00
 26.27     578.71
 26.37     610.24
 26.47     584.82
 26.57     591.09
 26.67     634.00
 26.77     603.00
 26.87     660.00
 26.97     625.00
 27.07     699.13
 27.17     657.00
 27.27     618.78
 27.37     624.48
 27.47     712.83
 27.57     730.00
 27.67     808.00
 27.77     833.74
 27.87     963.00
 27.97    1166.00
 28.07    1826.00
 28.17    2696.00
 28.27    4005.00
 28.37    5024.00
 28.47    5377.00
 28.57    4427.00
 28.67    3300.00
 28.77    2584.18
 28.87    2358.00
 28.97    2803.38
 29.07    3034.00
 29.17    3094.00
 29.27    2666.00
 29.37    1968.00
 29.47    1409.83
 29.57    1111.00
 29.67     888.48
 29.77     800.68
 29.87     852.00
 29.97     768.00
 30.07     711.00
 30.17     717.00
 30.27     770.00
 30.37     698.00
 30.47     639.00
 30.57     658.00
 30.67     605.41
 30.77     661.00
 30.87     728.28
 30.97     743.21
 31.07     696.00
 31.17     753.80
 31.27     722.00
 31.37     714.49
 31.47     692.47
 31.57     644.00
 31.67     649.00
 31.77     654.00
 31.87     635.00
 31.97     610.00
 32.07     566.04
 32.17     571.33
 32.27     645.00
 32.37     609.00
 32.47     588.00
 32.57     633.00
 32.67     633.90
 32.77     555.41
 32.87     575.00
 32.97     612.00
 33.07     609.40
 33.17     604.00
 33.27     624.00
 33.37     614.00
 33.47     636.00
 33.57     628.37
 33.67     656.00
 33.77     691.00
 33.87     741.00
 33.97     855.00
 34.07    1030.00
 34.17    1137.00
 34.27    1217.90
 34.37    1057.27
 34.47     949.31
 34.57     910.00
 34.67     763.32
 34.77     708.00
 34.87     618.47
 34.97     650.00
 35.07     645.00
 35.17     604.38
 35.27     616.00
 35.37     601.00
 35.47     582.96
 35.57     569.63
 35.67     595.00
 35.77     565.00
 35.87     574.85
 35.97     580.20
 36.07     586.00
 36.17     576.00
 36.27     576.00
 36.37     625.00
 36.47     539.00
 36.57     596.82
 36.67     588.00
 36.77     600.20
 36.87     590.00
 36.97     538.00
 37.07     524.00
 37.17     566.00
 37.27     603.42
 37.37     560.74
 37.47     561.00
 37.57     612.00
 37.67     587.84
 37.77     597.66
 37.87     592.10
 37.97     688.00
 38.07     669.25
 38.17     725.00
 38.27     681.00
 38.37     651.00
 38.47     674.00
 38.57     625.00
 38.67     640.00
 38.77     565.44
 38.87     555.45
 38.97     527.00
 39.07     585.99
 39.17     566.00
 39.27     549.53
 39.37     533.84
 39.47     572.00
 39.57     566.00
 39.67     552.64
 39.77     564.00
 39.87     570.00
 39.97     559.00
 40.07     604.00
 40.17     578.00
 40.27     540.00
 40.37     516.29
 40.47     596.76
 40.57     552.00
 40.67     512.00
 40.77     604.22
 40.87     597.00
 40.97     609.42
 41.07     564.00
 41.17     539.00
 41.27     548.96
 41.37     610.31
 41.47     525.00
 41.57     565.00
 41.67     515.26
 41.77     558.00
 41.87     564.00
 41.97     530.00
 42.07     576.98
 42.17     551.00
 42.27     537.00
 42.37     535.00
 42.47     597.00
 42.57     612.00
 42.67     641.93
 42.77     614.00
 42.87     684.00
 42.97     649.00
 43.07     727.15
 43.17     607.44
 43.27     682.16
 43.37     628.00
 43.47     619.00
 43.57     620.00
 43.67     568.00
 43.77     542.00
 43.87     574.00
 43.97     594.49
 44.07     530.44
 44.17     567.00
 44.27     560.00
 44.37     561.24
 44.47     570.00
 44.57     522.71
 44.67     520.00
 44.77     521.00
 44.87     572.92
 44.97     604.00
 45.07     561.00
 45.17     606.96
 45.27     548.00
 45.37     572.00
 45.47     580.82
 45.57     562.00
 45.67     530.00
 45.77     578.76
 45.87     574.61
 45.97     575.00
 46.07     513.18
 46.17     577.65
 46.27     586.67
 46.37     610.00
 46.47     575.00
 46.57     565.00
 46.67     601.74
 46.77     607.51
 46.87     570.00
 46.97     564.20
 47.07     553.00
 47.17     591.77
 47.27     541.92
 47.37     611.38
 47.47     583.00
 47.57     534.00
 47.67     590.00
 47.77     637.00
 47.87     610.00
 47.97     659.46
 48.07     637.00
 48.17     669.00
 48.27     666.00
 48.37     677.00
 48.47     616.00
 48.57     619.00
 48.67     614.00
 48.77     640.10
 48.87     598.00
 48.97     589.79
 49.07     603.00
 49.17     579.00
 49.27     578.00
 49.37     578.00
 49.47     593.03
 49.57     667.82
 49.67     641.00
 49.77     732.00
 49.87     844.00
 49.97    1011.00
 50.07    1338.00
 50.17    1751.00
 50.27    2177.00
 50.37    2562.78
 50.47    2729.15
 50.57    2899.47
 50.67    2449.86
 50.77    2131.00
 50.87    1640.00
 50.97    1254.00
 51.07    1006.00
 51.17     862.00
 51.27     766.00
 51.37     714.00
 51.47     675.48
 51.57     679.00
 51.67     699.91
 51.77     696.82
 51.87     664.00
 51.97     640.00
 52.07     652.00
 52.17     663.00
 52.27     677.00
 52.37     641.00
 52.47     676.00
 52.57     606.00
 52.67     668.90
 52.77     628.00
 52.87     599.55
 52.97     659.00
 53.07     719.79
 53.17     759.61
 53.27     790.85
 53.37     842.00
 53.47     892.00
 53.57     979.05
 53.67    1134.00
 53.77    1272.62
 53.87    1252.00
 53.97    1225.00
 54.07    1136.41
 54.17    1148.66
 54.27     911.00
 54.37     834.00
 54.47     763.23
 54.57     731.00
 54.67     694.26
 54.77     700.00
 54.87     657.00
 54.97     671.99
 55.07     656.00
 55.17     643.10
 55.27     664.00
 55.37     592.00
 55.47     588.87
 55.57     642.00
 55.67     637.00
 55.77     673.00
 55.87     613.00
 55.97     671.00
 56.07     665.00
 56.17     665.00
 56.27     723.00
 56.37     774.00
 56.47     846.81
 56.57     998.18
 56.67    1169.00
 56.77    1464.00
 56.87    1792.00
 56.97    2163.00
 57.07    2299.88
 57.17    2701.00
 57.27    2694.81
 57.37    2592.00
 57.47    2275.00
 57.57    2006.00
 57.67    1515.00
 57.77    1365.06
 57.87    1119.00
 57.97     919.00
 58.07     881.00
 58.17     835.00
 58.27     711.34
 58.37     765.00
 58.47     797.00
 58.57     820.00
 58.67     798.00
 58.77     876.74
 58.87     919.00
 58.97    1167.59
 59.07    1165.00
 59.17    1183.00
 59.27    1321.81
 59.37    1310.00
 59.47    1283.00
 59.57    1287.51
 59.67    1254.00
 59.77    1138.31
 59.87    1218.00
 59.97    1230.12
 60.07    1128.63
 60.17    1209.30
 60.27    1382.23
 60.37    1520.00
 60.47    1516.00
 60.57    1592.00
 60.67    1599.00
 60.77    1427.59
 60.87    1412.73
 60.97    1285.00
 61.07    1154.58
 61.17    1010.00
 61.27     823.00
 61.37     805.00
 61.47     775.00
 61.57     780.00
 61.67     806.00
 61.77     768.00
 61.87     871.03
 61.97     937.00
 62.07    1034.00
 62.17    1112.00
 62.27    1352.00
 62.37    1462.00
 62.47    1473.61
 62.57    1530.00
 62.67    1462.00
 62.77    1436.79
 62.87    1382.76
 62.97    1113.80
 63.07     987.19
 63.17     969.03
 63.27     803.75
 63.37     721.18
 63.47     739.00
 63.57     703.00
 63.67     697.00
 63.77     656.00
 63.87     605.56
 63.97     687.00
 64.07     727.89
 64.17     729.57
 64.27     748.44
 64.37     793.05
 64.47     890.67
 64.57     998.00
 64.67    1022.00
 64.77    1113.31
 64.87    1223.00
 64.97    1277.00
 65.07    1326.00
 65.17    1269.53
 65.27    1290.00
 65.37    1238.84
 65.47    1177.94
 65.57    1117.31
 65.67    1009.00
 65.77     900.00
 65.87     805.17
 65.97     776.00
 66.07     740.85
 66.17     706.62
 66.27     681.00
 66.37     727.48
 66.47     629.55
 66.57     645.00
 66.67     588.00
 66.77     642.52
 66.87     642.00
 66.97     611.22
 67.07     683.00
 67.17     632.29
 67.27     705.00
 67.37     766.54
 67.47     688.00
 67.57     795.00
 67.67     905.00
 67.77     949.00
 67.87    1114.00
 67.97    1417.38
 68.07    1652.00
 68.17    1817.01
 68.27    2038.00
 68.37    2340.00
 68.47    2491.55
 68.57    2397.32
 68.67    2288.00
 68.77    2268.00
 68.87    2036.00
 68.97    1829.00
 69.07    1450.00
 69.17    1274.00
 69.27    1153.00
 69.37     971.12
 69.47     937.16
 69.57     837.00
 69.67     839.00
 69.77     783.00
 69.87     733.87
 69.97     665.00
 70.07     716.00
 70.17     673.00
 70.27     698.00
 70.37     703.00
 70.47     654.63
 70.57     672.00
 70.67     644.00
 70.77     634.21
 70.87     680.00
 70.97     605.28
 71.07     710.00
 71.17     705.00
 71.27     754.00
 71.37     680.71
 71.47     812.67
 71.57     758.25
 71.67     925.12
 71.77    1000.81
 71.87    1112.00
 71.97    1260.00
 72.07    1481.00
 72.17    1533.00
 72.27    1779.00
 72.37    1887.63
 72.47    2013.51
 72.57    1974.00
 72.67    1901.00
 72.77    1752.11
 72.87    1667.00
 72.97    1441.51
 73.07    1349.68
 73.17    1126.27
 73.27     997.00
 73.37     887.00
 73.47     779.00
 73.57     748.11
 73.67     769.27
 73.77     674.98
 73.87     651.00
 73.97     659.00
 74.07     620.16
 74.17     635.00
 74.27     613.00
 74.37     630.00
 74.47     605.00
 74.57     651.35
 74.67     686.00
 74.77     625.51
 74.87     647.00
 74.97     623.18
 75.07     693.00
 75.17     599.26
 75.27     672.79
 75.37     654.00
 75.47     620.33
 75.57     706.00
 75.67     666.00
 75.77     667.00
 75.87     637.00
 75.97     626.00
 76.07     640.56
 76.17     657.00
 76.27     673.00
 76.37     660.00
 76.47     728.00
 76.57     701.00
 76.67     743.00
 76.77     850.27
 76.87     845.17
 76.97     811.72
 77.07     903.00
 77.17     927.19
 77.27     893.62
 77.37     784.51
 77.47     769.00
 77.57     750.00
 77.67     781.00
 77.77     675.37
 77.87     728.27
 77.97     638.00
 78.07     674.00
 78.17     576.00
 78.27     636.89
 78.37     593.00
 78.47     602.00
 78.57     586.15
 78.67     573.00
 78.77     567.33
 78.87     576.00
 78.97     587.52
 79.07     575.00
 79.17     529.00
 79.27     558.36
 79.37     578.01
 79.47     538.40
 79.57     633.74
 79.67     563.00
 79.77     543.10
 79.87     582.00
 79.97     589.00
 80.07     606.00
 80.17     554.47
 80.27     613.50
 80.37     626.00
 80.47     622.00
 80.57     651.60
 80.67     696.31
 80.77     727.00
 80.87     748.23
 80.97     866.75
 81.07     862.00
 81.17     948.00
 81.27    1010.00
 81.37    1057.00
 81.47    1135.38
 81.57    1128.00
 81.67    1185.00
 81.77    1124.64
 81.87    1170.38
 81.97    1087.00
 82.07    1077.00
 82.17    1061.00
 82.27     969.48
 82.37     909.87
 82.47     880.00
 82.57     773.83
 82.67     777.33
 82.77     727.00
 82.87     730.00
 82.97     704.13
 83.07     723.33
 83.17     712.05
 83.27     609.00
 83.37     633.95
 83.47     633.16
 83.57     648.00
 83.67     655.04
 83.77     619.00
 83.87     562.00
 83.97     630.35
 84.07     565.00
 84.17     611.00
 84.27     628.00
 84.37     617.00
 84.47     661.70
 84.57     629.00
 84.67     603.00
 84.77     581.00
 84.87     588.19
 84.97     596.00
 85.07     602.00
 85.17     602.00
 85.27     566.47
 85.37     629.00
 85.47     556.00
 85.57     593.00
 85.67     575.90
 85.77     589.00
 85.87     540.87
 85.97     575.00
 86.07     576.13
 86.17     598.00
 86.27     579.80
 86.37     670.00
 86.47     589.78
 86.57     583.00
 86.67     609.00
 86.77     554.57
 86.87     594.00
 86.97     591.01
 87.07     626.00
 87.17     655.00
 87.27     643.00
 87.37     659.00
 87.47     646.16
 87.57     648.65
 87.67     685.82
 87.77     691.00
 87.87     685.00
 87.97     726.00
 88.07     677.12
 88.17     730.00
 88.27     673.00
 88.37     661.00
 88.47     666.65
 88.57     707.71
 88.67     640.00
 88.77     671.00
 88.87     669.00
 88.97     610.00
 89.07     646.00
 89.17     642.00
 89.27     595.00
 89.37     635.00
 89.47     630.00
 89.57     622.00
 89.67     629.00
 89.77     629.00
 89.87     655.58
 89.97     664.00
 90.07     672.49
 90.17     675.00
 90.27     667.04
 90.37     644.08
 90.47     612.00
 90.57     630.00
 90.67     624.88
 90.77     618.28
 90.87     605.61
 90.97     580.00
 91.07     617.69
 91.17     573.00
 91.27     540.00
 91.37     563.76
 91.47     562.66
 91.57     595.91
 91.67     488.00
 91.77     561.00
 91.87     562.00
 91.97     560.00
 92.07     519.16
 92.17     553.00
 92.27     523.22
 92.37     562.00
 92.47     564.00
 92.57     592.00
 92.67     623.96
 92.77     618.24
 92.87     661.96
 92.97     636.00
 93.07     642.00
 93.17     718.00
 93.27     700.00
 93.37     707.50
 93.47     692.92
 93.57     779.69
 93.67     756.00
 93.77     819.06
 93.87     789.00
 93.97     784.43
 94.07     797.64
 94.17     837.00
 94.27     815.02
 94.37     845.80
 94.47     845.00
 94.57     945.00
 94.67     908.00
 94.77     920.00
 94.87     970.94
 94.97     959.00
 95.07     941.60
 95.17     948.00
 95.27     999.00
 95.37     981.10
 95.47    1043.32
 95.57     960.83
 95.67    1001.88
 95.77     947.50
 95.87     899.31
 95.97     893.00
 96.07     828.87
 96.17     873.00
 96.27     843.00
 96.37     762.00
 96.47     767.00
 96.57     803.06
 96.67     834.00
 96.77     777.00
 96.87     744.11
 96.97     827.00
 97.07     986.00
 97.17     884.06
 97.27     996.00
 97.37    1062.12
 97.47    1055.07
 97.57    1110.00
 97.67    1264.00
 97.77    1312.00
 97.87    1388.00
 97.97    1464.07
 98.07    1513.24
 98.17    1643.00
 98.27    1557.00
 98.37    1589.00
 98.47    1440.58
 98.57    1561.77
 98.67    1378.00
 98.77    1331.14
 98.87    1330.00
 98.97    1216.66
 99.07    1176.00
 99.17    1119.61
 99.27    1063.00
 99.37    1013.00
 99.47     966.00
 99.57     948.00
 99.67    1018.00
 99.77     971.41
 99.87    1028.00
 99.97     974.32
100.07    1066.00
100.17    1095.00
100.27    1168.00
100.37    1266.00
100.47    1277.00
100.57    1504.00
100.67    1503.40
100.77    1676.00
100.87    1673.23
100.97    1775.00
101.07    1942.00
101.17    1874.17
101.27    1892.72
101.37    2022.00
101.47    2054.49
101.57    2132.00
101.67    2027.42
101.77    2001.85
101.87    1949.22
101.97    2034.00
102.07    1882.00
102.17    1740.72
102.27    1756.86
102.37    1663.56
102.47    1681.12
102.57    1528.00
102.67    1407.00
102.77    1362.00
102.87    1325.20
102.97    1270.00
103.07    1341.69
103.17    1324.76
103.27    1306.12
103.37    1188.00
103.47    1084.00
103.57    1151.00
103.67    1081.62
103.77    1098.00
103.87    1025.00
103.97     983.20
104.07     940.00
104.17     909.00
104.27     894.00
104.37     783.82
104.47     833.00
104.57     791.00
104.67     752.96
104.77     725.00
104.87     653.00
104.97     700.00
105.07     635.53
105.17     693.00
105.27     618.00
105.37     642.00
105.47     618.00
105.57     619.00
105.67     597.00
105.77     623.00
105.87     588.00
105.97     587.00
106.07     639.00
106.17     576.00
106.27     572.00
106.37     643.00
106.47     607.83
106.57     588.00
106.67     553.83
106.77     637.00
106.87     644.00
106.97     662.00
107.07     613.43
107.17     636.56
107.27     685.00
107.37     683.83
107.47     640.47
107.57     746.28
107.67     730.00
107.77     719.00
107.87     699.00
107.97     722.22
108.07     809.00
108.17     738.00
108.27     778.00
108.37     737.21
108.47     776.00
108.57     731.74
108.67     750.00
108.77     771.00
108.87     702.28
108.97     700.00
109.07     717.00
109.17     757.00
109.27     715.00
109.37     725.00
109.47     737.00
109.57     756.00
109.67     727.79
109.77     774.62
109.87     755.14
109.97     688.00
110.07     730.00
110.17     723.16
110.27     698.87
110.37     723.00
110.47     740.57
110.57     718.00
110.67     670.00
110.77     681.64
110.87     687.00
110.97     659.94
111.07     637.00
111.17     671.00
111.27     618.00
111.37     642.00
111.47     566.08
111.57     597.00
111.67     598.00
111.77     590.00
111.87     608.69
111.97     583.00
112.07     578.93
112.17     594.00
112.27     576.00
112.37     596.00
112.47     604.00
112.57     558.00
112.67     631.37
112.77     602.24
112.87     568.00
112.97     615.00
113.07     555.23
113.17     591.85
113.27     572.00
113.37     578.96
113.47     622.35
113.57     596.91
113.67     608.60
113.77     628.00
113.87     659.13
113.97     583.00
114.07     667.00
114.17     643.00
114.27     653.00
114.37     699.00
114.47     711.00
114.57     738.00
114.67     752.54
114.77     795.00
114.87     809.58
114.97     889.00
115.07     988.88
115.17     920.00
115.27    1047.00
115.37    1277.77
115.47    1303.00
115.57    1547.58
115.67    1717.00
115.77    1774.00
115.87    2037.00
115.97    2301.63
116.07    2761.00
116.17    2950.00
116.27    3294.00
116.37    3593.00
116.47    3896.00
116.57    4347.00
116.67    4654.00
116.77    5130.00
116.87    5455.15
116.97    5805.00
117.07    6004.00
117.17    6675.00
117.27    6827.00
117.37    6937.47
117.47    7396.00
117.57    7168.53
117.67    7466.00
117.77    7185.90
117.87    7216.21
117.97    7191.00
118.07    6693.00
118.17    6507.00
118.27    6143.00
118.37    6036.06
118.47    5299.00
118.57    5175.00
118.67    4860.00
118.77    4440.00
118.87    4130.75
118.97    3782.39
119.07    3235.96
119.17    3080.00
119.27    2789.00
119.37    2521.00
119.47    2367.00
119.57    2049.99
119.67    1848.00
119.77    1707.00
119.87    1423.50
119.97    1358.00
120.07    1313.00
120.17    1121.39
120.27    1106.00
120.37    1097.00
120.47     966.00
120.57     929.00
120.67     867.00
120.77     811.00
120.87     824.00
120.97     746.00
121.07     808.98
121.17     713.00
121.27     682.00
121.37     696.79
121.47     715.00
121.57     732.32
121.67     623.00
121.77     669.36
121.87     597.00
121.97     667.00
122.07     643.00
122.17     672.00
122.27     684.00
122.37     684.00
122.47     643.00
122.57     649.00
122.67     695.00
122.77     633.00
122.87     721.41
122.97     730.00
123.07     713.41
123.17     662.29
123.27     664.62
123.37     657.87
123.47     717.00
123.57     716.00
123.67     740.00
123.77     713.16
123.87     719.66
123.97     738.00
124.07     687.88
124.17     764.00
124.27     765.00
124.37     708.00
124.47     769.00
124.57     754.00
124.67     733.00
124.77     700.00
124.87     732.00
124.97     750.00
