  9.97     628.00
 10.07     648.00
 10.17     654.00
 10.27     596.00
 10.37     599.03
 10.47     614.00
 10.57     627.00
 10.67     563.00
 10.77     590.00
 10.87     584.60
 10.97     533.77
 11.07     578.25
 11.17     589.00
 11.27     604.27
 11.37     636.00
 11.47     552.00
 11.57     653.00
 11.67     574.00
 11.77     649.00
 11.87     603.20
 11.97     655.00
 12.07     641.00
 12.17     680.00
 12.27     745.64
 12.37     632.00
 12.47     689.71
 12.57     612.00
 12.67     595.00
 12.77     599.00
 12.87     598.00
 12.97     580.00
 13.07     553.00
 13.17     594.58
 13.27     537.00
 13.37     548.11
 13.47     584.87
 13.57     534.00
 13.67     570.00
 13.77     552.00
 13.87     542.00
 13.97     583.34
 14.07     570.57
 14.17     578.10
 14.27     603.45
 14.37     578.00
 14.47     552.00
 14.57     603.18
 14.67     603.00
 14.77     604.00
 14.87     575.00
 14.97     613.05
 15.07     576.00
 15.17     573.65
 15.27     545.00
 15.37     565.00
 15.47     601.00
 15.57     563.00
 15.67     550.00
 15.77     585.00
 15.87     539.00
 15.97     561.00
 16.07     530.03
 16.17     580.00
 16.27     561.00
 16.37     550.00
 16.47     607.53
 16.57     567.00
 16.67     560.00
 16.77     599.00
 16.87     562.99
 16.97     605.92
 17.07     537.96
 17.17     529.00
 17.27     550.00
 17.37     531.00
 17.47     534.00
 17.57     573.00
 17.67     548.51
 17.77     550.00
 17.87     567.00
 17.97     587.00
 18.07     550.00
 18.17     547.00
 18.27     540.00
 18.37     537.00
 18.47     602.25
 18.57     552.00
 18.67     536.00
 18.77     570.00
 18.87     551.52
 18.97     565.00
 19.07     549.00
 19.17     516.00
 19.27     598.39
 19.37     591.00
 19.47     569.00
 19.57     568.00
 19.67     525.00
 19.77     508.00
 19.87     533.00
 19.97     581.00
 20.07     565.29
 20.17     593.63
 20.27     519.92
 20.37     511.80
 20.47     517.00
 20.57     595.76
 20.67     553.09
 20.77     502.00
 20.87     537.21
 20.97     556.00
 21.07     551.00
 21.17     563.00
 21.27     554.00
 21.37     598.00
 21.47     525.00
 21.57     591.00
 21.67     592.68
 21.77     544.00
 21.87     545.00
 21.97     571.00
 22.07     528.00
 22.17     534.24
 22.27     533.00
 22.37     585.12
 22.47     594.01
 22.57     545.68
 22.67     542.00
 22.77     565.00
 22.87     581.15
 22.97     569.88
 23.07     581.00
 23.17     557.00
 23.27     571.00
 23.37     527.00
 23.47     550.37
 23.57     567.17
 23.67     571.00
 23.77     510.63
 23.87     575.00
 23.97     538.29
 24.07     549.50
 24.17     547.00
 24.27     556.00
 24.37     570.00
 24.47     586.00
 24.57     578.00
 24.67     614.00
 24.77     629.00
 24.87     671.00
 24.97     597.32
 25.07     554.24
 25.17     576.00
 25.27     556.00
 25.37     499.00
 25.47     539.00
 25.57     554.00
 25.67     521.43
 25.77     542.00
 25.87     562.00
 25.97     569.00
 26.07     590.00
 26.17     543.38
 26.27     518.00
 26.37     565.64
 26.47     519.90
 26.57     549.47
 26.67     529.00
 26.77     539.00
 26.87     564.33
 26.97     550.17
 27.07     537.53
 27.17     584.28
 27.27     546.98
 27.37     584.15
 27.47     574.00
 27.57     582.00
 27.67     534.00
 27.77     564.00
 27.87     643.00
 27.97     691.00
 28.07     743.00
 28.17     869.59
 28.27    1013.00
 28.37     861.09
 28.47     740.12
 28.57     715.88
 28.67     634.70
 28.77     749.00
 28.87     848.00
 28.97     830.00
 29.07     764.00
 29.17     731.29
 29.27     616.00
 29.37     635.00
 29.47     601.00
 29.57     571.90
 29.67     615.28
 29.77     613.48
 29.87     598.00
 29.97     564.79
 30.07     567.00
 30.17     554.00
 30.27     575.00
 30.37     537.57
 30.47     534.22
 30.57     584.02
 30.67     565.63
 30.77     589.00
 30.87     565.96
 30.97     631.45
 31.07     623.00
 31.17     540.10
 31.27     574.00
 31.37     511.69
 31.47     494.04
 31.57     531.00
 31.67     510.52
 31.77     545.26
 31.87     585.00
 31.97     524.00
 32.07     500.00
 32.17     514.00
 32.27     492.00
 32.37     491.07
 32.47     567.49
 32.57     558.00
 32.67     542.00
 32.77     565.56
 32.87     565.00
 32.97     545.00
 33.07     511.00
 33.17     537.86
 33.27     574.60
 33.37     559.00
 33.47     512.00
 33.57     531.76
 33.67     613.09
 33.77     783.00
 33.87     880.00
 33.97     962.33
 34.07    1105.88
 34.17    1042.00
 34.27     876.00
 34.37     719.00
 34.47     661.00
 34.57     568.00
 34.67     595.00
 34.77     583.00
 34.87     565.40
 34.97     508.00
 35.07     565.33
 35.17     516.61
 35.27     499.60
 35.37     479.98
 35.47     532.00
 35.57     561.00
 35.67     544.06
 35.77     562.40
 35.87     529.00
 35.97     509.00
 36.07     479.00
 36.17     514.80
 36.27     493.00
 36.37     495.67
 36.47     506.00
 36.57     498.00
 36.67     515.00
 36.77     486.00
 36.87     548.00
 36.97     497.00
 37.07     516.40
 37.17     546.00
 37.27     544.09
 37.37     520.92
 37.47     519.23
 37.57     536.00
 37.67     494.00
 37.77     551.00
 37.87     529.00
 37.97     483.76
 38.07     506.09
 38.17     560.59
 38.27     517.18
 38.37     523.51
 38.47     513.00
 38.57     510.00
 38.67     515.00
 38.77     543.41
 38.87     496.00
 38.97     525.00
 39.07     489.94
 39.17     511.05
 39.27     478.90
 39.37     505.00
 39.47     534.96
 39.57     483.56
 39.67     542.80
 39.77     551.00
 39.87     501.00
 39.97     490.00
 40.07     483.00
 40.17     559.00
 40.27     528.00
 40.37     477.20
 40.47     502.74
 40.57     485.00
 40.67     480.00
 40.77     550.99
 40.87     523.00
 40.97     476.99
 41.07     505.84
 41.17     544.00
 41.27     596.00
 41.37     530.00
 41.47     506.29
 41.57     454.00
 41.67     482.00
 41.77     495.00
 41.87     500.57
 41.97     514.00
 42.07     499.00
 42.17     527.00
 42.27     517.31
 42.37     556.48
 42.47     571.00
 42.57     597.00
 42.67     629.00
 42.77     599.00
 42.87     608.00
 42.97     562.00
 43.07     568.48
 43.17     513.00
 43.27     562.33
 43.37     509.00
 43.47     528.00
 43.57     508.00
 43.67     525.00
 43.77     518.00
 43.87     523.00
 43.97     497.05
 44.07     505.00
 44.17     533.00
 44.27     499.00
 44.37     513.00
 44.47     467.00
 44.57     536.01
 44.67     526.00
 44.77     496.70
 44.87     484.60
 44.97     509.00
 45.07     501.00
 45.17     513.00
 45.27     504.00
 45.37     547.00
 45.47     548.85
 45.57     526.00
 45.67     538.88
 45.77     537.00
 45.87     484.88
 45.97     506.00
 46.07     525.00
 46.17     549.00
 46.27     526.00
 46.37     508.00
 46.47     526.00
 46.57     520.00
 46.67     522.00
 46.77     526.09
 46.87     504.00
 46.97     533.00
 47.07     500.81
 47.17     461.00
 47.27     509.00
 47.37     495.52
 47.47     548.00
 47.57     560.00
 47.67     589.00
 47.77     586.00
 47.87     561.00
 47.97     600.00
 48.07     601.00
 48.17     573.00
 48.27     568.33
 48.37     581.00
 48.47     570.78
 48.57     490.00
 48.67     578.00
 48.77     582.00
 48.87     549.00
 48.97     560.00
 49.07     605.74
 49.17     631.00
 49.27     669.00
 49.37     667.96
 49.47     755.00
 49.57     841.00
 49.67     966.00
 49.77    1152.73
 49.87    1425.00
 49.97    1786.81
 50.07    2197.75
 50.17    2512.00
 50.27    2517.44
 50.37    2406.11
 50.47    1947.99
 50.57    1448.05
 50.67    1157.37
 50.77     827.30
 50.87     730.00
 50.97     624.00
 51.07     594.00
 51.17     606.00
 51.27     628.25
 51.37     602.00
 51.47     559.00
 51.57     575.76
 51.67     595.00
 51.77     575.00
 51.87     572.00
 51.97     582.00
 52.07     552.00
 52.17     507.00
 52.27     558.00
 52.37     499.79
 52.47     573.00
 52.57     561.00
 52.67     555.35
 52.77     598.00
 52.87     571.96
 52.97     771.00
 53.07     746.00
 53.17     867.37
 53.27    1042.93
 53.37    1093.00
 53.47    1186.31
 53.57    1218.98
 53.67    1146.00
 53.77     961.00
 53.87     800.00
 53.97     832.50
 54.07     729.60
 54.17     632.83
 54.27     555.00
 54.37     537.00
 54.47     576.00
 54.57     544.00
 54.67     508.55
 54.77     500.01
 54.87     532.00
 54.97     507.18
 55.07     522.93
 55.17     516.00
 55.27     585.00
 55.37     552.00
 55.47     546.53
 55.57     579.57
 55.67     557.00
 55.77     582.00
 55.87     599.69
 55.97     641.38
 56.07     661.94
 56.17     778.31
 56.27     842.00
 56.37    1146.71
 56.47    1403.00
 56.57    1750.00
 56.67    2116.00
 56.77    2387.42
 56.87    2623.00
 56.97    2602.00
 57.07    2341.09
 57.17    2085.00
 57.27    1626.69
 57.37    1365.93
 57.47    1071.00
 57.57     842.00
 57.67     707.50
 57.77     692.72
 57.87     709.00
 57.97     657.00
 58.07     690.00
 58.17     678.88
 58.27     759.00
 58.37     912.91
 58.47     986.40
 58.57    1111.46
 58.67    1270.68
 58.77    1380.00
 58.87    1548.00
 58.97    1609.30
 59.07    1641.00
 59.17    1580.00
 59.27    1505.54
 59.37    1408.00
 59.47    1274.00
 59.57    1131.86
 59.67    1115.00
 59.77    1155.30
 59.87    1108.00
 59.97    1361.00
 60.07    1347.58
 60.17    1425.26
 60.27    1539.00
 60.37    1475.25
 60.47    1348.00
 60.57    1302.00
 60.67    1101.00
 60.77     918.00
 60.87     815.00
 60.97     656.97
 61.07     624.85
 61.17     659.00
 61.27     630.00
 61.37     631.23
 61.47     635.00
 61.57     761.95
 61.67     855.50
 61.77     903.00
 61.87    1070.00
 61.97    1248.06
 62.07    1357.00
 62.17    1443.00
 62.27    1397.76
 62.37    1274.00
 62.47    1277.53
 62.57    1087.35
 62.67     917.00
 62.77     756.00
 62.87     756.76
 62.97     599.43
 63.07     630.00
 63.17     578.00
 63.27     533.57
 63.37     568.21
 63.47     558.44
 63.57     552.38
 63.67     561.00
 63.77     571.00
 63.87     621.00
 63.97     660.00
 64.07     668.00
 64.17     787.76
 64.27     811.00
 64.37     912.00
 64.47     934.00
 64.57    1053.00
 64.67    1004.00
 64.77     953.65
 64.87     982.00
 64.97     916.00
 65.07     815.85
 65.17     831.84
 65.27     759.00
 65.37     771.00
 65.47     637.00
 65.57     660.00
 65.67     566.83
 65.77     610.15
 65.87     609.21
 65.97     534.21
 66.07     556.00
 66.17     530.00
 66.27     536.00
 66.37     593.60
 66.47     519.26
 66.57     504.00
 66.67     580.00
 66.77     557.00
 66.87     554.47
 66.97     583.00
 67.07     605.00
 67.17     684.00
 67.27     742.00
 67.37     867.00
 67.47    1061.00
 67.57    1212.00
 67.67    1461.97
 67.77    1744.00
 67.87    1985.18
 67.97    2418.00
 68.07    2379.00
 68.17    2407.00
 68.27    2343.00
 68.37    2118.76
 68.47    1778.25
 68.57    1537.46
 68.67    1245.38
 68.77    1062.58
 68.87     845.00
 68.97     799.00
 69.07     700.00
 69.17     690.00
 69.27     568.94
 69.37     618.00
 69.47     576.00
 69.57     612.00
 69.67     579.00
 69.77     601.00
 69.87     601.00
 69.97     551.00
 70.07     538.00
 70.17     543.00
 70.27     600.00
 70.37     558.00
 70.47     525.00
 70.57     542.00
 70.67     532.55
 70.77     579.10
 70.87     624.00
 70.97     615.67
 71.07     627.00
 71.17     722.00
 71.27     819.00
 71.37     916.00
 71.47    1027.00
 71.57    1244.00
 71.67    1376.00
 71.77    1597.00
 71.87    1821.00
 71.97    1852.00
 72.07    2010.33
 72.17    1908.00
 72.27    1806.63
 72.37    1708.00
 72.47    1543.00
 72.57    1406.00
 72.67    1283.85
 72.77    1099.00
 72.87    1061.53
 72.97    1014.67
 73.07     823.00
 73.17     771.00
 73.27     761.00
 73.37     672.00
 73.47     628.00
 73.57     629.00
 73.67     563.00
 73.77     630.30
 73.87     600.00
 73.97     603.51
 74.07     566.10
 74.17     690.00
 74.27     588.00
 74.37     632.00
 74.47     590.31
 74.57     570.16
 74.67     609.23
 74.77     557.18
 74.87     629.00
 74.97     533.02
 75.07     604.00
 75.17     574.15
 75.27     585.00
 75.37     589.59
 75.47     535.00
 75.57     601.17
 75.67     571.27
 75.77     601.73
 75.87     580.00
 75.97     572.26
 76.07     621.00
 76.17     642.05
 76.27     693.00
 76.37     701.36
 76.47     666.16
 76.57     696.00
 76.67     695.00
 76.77     733.00
 76.87     627.00
 76.97     661.62
 77.07     652.00
 77.17     625.00
 77.27     588.11
 77.37     564.17
 77.47     594.00
 77.57     527.00
 77.67     545.00
 77.77     540.74
 77.87     519.17
 77.97     547.00
 78.07     565.00
 78.17     489.00
 78.27     525.00
 78.37     493.96
 78.47     554.00
 78.57     537.00
 78.67     524.76
 78.77     507.00
 78.87     528.00
 78.97     526.00
 79.07     516.23
 79.17     517.36
 79.27     516.22
 79.37     556.77
 79.47     536.96
 79.57     495.57
 79.67     551.27
 79.77     526.51
 79.87     539.00
 79.97     531.43
 80.07     544.00
 80.17     536.00
 80.27     572.00
 80.37     552.00
 80.47     584.00
 80.57     631.27
 80.67     647.00
 80.77     624.92
 80.87     681.00
 80.97     686.00
 81.07     731.00
 81.17     723.00
 81.27     692.00
 81.37     747.00
 81.47     696.59
 81.57     804.00
 81.67     724.00
 81.77     702.00
 81.87     713.34
 81.97     711.87
 82.07     716.09
 82.17     677.00
 82.27     663.12
 82.37     680.00
 82.47     598.00
 82.57     580.99
 82.67     563.00
 82.77     539.00
 82.87     552.00
 82.97     524.00
 83.07     589.94
 83.17     577.15
 83.27     512.00
 83.37     533.00
 83.47     569.00
 83.57     572.00
 83.67     556.00
 83.77     543.00
 83.87     574.00
 83.97     532.00
 84.07     572.00
 84.17     542.00
 84.27     561.00
 84.37     555.75
 84.47     563.00
 84.57     538.12
 84.67     553.00
 84.77     479.00
 84.87     575.11
 84.97     574.83
 85.07     485.00
 85.17     554.00
 85.27     521.00
 85.37     535.03
 85.47     512.00
 85.57     492.00
 85.67     523.00
 85.77     542.00
 85.87     528.00
 85.97     540.00
 86.07     504.00
 86.17     561.00
 86.27     573.16
 86.37     558.00
 86.47     508.83
 86.57     534.80
 86.67     604.34
 86.77     577.00
 86.87     574.00
 86.97     573.21
 87.07     605.00
 87.17     654.00
 87.27     614.40
 87.37     669.00
 87.47     666.00
 87.57     634.00
 87.67     646.00
 87.77     617.13
 87.87     622.00
 87.97     590.00
 88.07     605.86
 88.17     558.00
 88.27     571.26
 88.37     527.00
 88.47     541.96
 88.57     562.00
 88.67     588.73
 88.77     579.84
 88.87     583.00
 88.97     587.00
 89.07     581.00
 89.17     612.00
 89.27     662.00
 89.37     556.58
 89.47     619.53
 89.57     616.23
 89.67     597.00
 89.77     566.00
 89.87     594.56
 89.97     546.00
 90.07     538.00
 90.17     571.36
 90.27     490.00
 90.37     555.00
 90.47     542.70
 90.57     529.00
 90.67     512.00
 90.77     519.00
 90.87     540.00
 90.97     495.41
 91.07     534.00
 91.17     508.28
 91.27     529.00
 91.37     519.69
 91.47     500.51
 91.57     522.52
 91.67     515.00
 91.77     509.96
 91.87     587.66
 91.97     568.64
 92.07     538.00
 92.17     535.00
 92.27     622.00
 92.37     633.68
 92.47     645.00
 92.57     645.00
 92.67     605.00
 92.77     663.57
 92.87     673.00
 92.97     705.00
 93.07     786.00
 93.17     776.00
 93.27     792.00
 93.37     797.00
 93.47     769.00
 93.57     808.00
 93.67     760.70
 93.77     786.34
 93.87     879.23
 93.97     881.24
 94.07     873.00
 94.17     866.00
 94.27     858.38
 94.37     876.00
 94.47     905.00
 94.57     836.40
 94.67     942.00
 94.77     960.00
 94.87     890.32
 94.97     889.00
 95.07     842.68
 95.17     862.00
 95.27     831.00
 95.37     828.00
 95.47     764.00
 95.57     696.29
 95.67     717.00
 95.77     730.00
 95.87     666.00
 95.97     656.00
 96.07     623.00
 96.17     699.05
 96.27     704.00
 96.37     733.00
 96.47     780.00
 96.57     797.00
 96.67     944.06
 96.77     985.71
 96.87    1025.00
 96.97    1070.98
 97.07    1202.21
 97.17    1334.67
 97.27    1366.33
 97.37    1447.00
 97.47    1456.00
 97.57    1447.00
 97.67    1429.00
 97.77    1434.00
 97.87    1373.65
 97.97    1339.04
 98.07    1262.00
 98.17    1160.00
 98.27    1094.36
 98.37    1090.00
 98.47     960.00
 98.57     917.00
 98.67     853.27
 98.77     771.80
 98.87     838.23
 98.97     797.00
 99.07     752.98
 99.17     770.12
 99.27     884.00
 99.37     942.68
 99.47     998.00
 99.57    1101.01
 99.67    1127.00
 99.77    1304.80
 99.87    1381.00
 99.97    1444.17
100.07    1579.00
100.17    1746.00
100.27    1757.67
100.37    1982.47
100.47    2024.00
100.57    2072.00
100.67    2109.49
100.77    2159.00
100.87    2153.00
100.97    2049.00
101.07    2053.00
101.17    1914.00
101.27    1865.00
101.37    1829.36
101.47    1670.00
101.57    1587.00
101.67    1443.00
101.77    1360.00
101.87    1311.23
101.97    1215.85
102.07    1225.93
102.17    1213.16
102.27    1211.26
102.37    1193.00
102.47    1037.00
102.57    1070.00
102.67    1041.00
102.77     987.00
102.87     988.00
102.97     965.00
103.07     959.00
103.17     911.00
103.27     849.00
103.37     859.00
103.47     819.00
103.57     730.00
103.67     710.00
103.77     685.00
103.87     681.82
103.97     569.65
104.07     608.00
104.17     622.00
104.27     603.78
104.37     524.73
104.47     592.00
104.57     532.96
104.67     536.28
104.77     561.00
104.87     489.00
104.97     563.00
105.07     504.26
105.17     521.00
105.27     558.55
105.37     544.00
105.47     546.00
105.57     538.00
105.67     548.00
105.77     521.00
105.87     520.06
105.97     555.57
106.07     568.00
106.17     546.00
106.27     581.00
106.37     629.87
106.47     578.48
106.57     621.00
106.67     660.00
106.77     682.18
106.87     643.13
106.97     695.00
107.07     713.00
107.17     699.80
107.27     640.00
107.37     690.25
107.47     691.00
107.57     680.00
107.67     665.06
107.77     655.25
107.87     666.00
107.97     658.58
108.07     648.12
108.17     704.78
108.27     657.00
108.37     630.00
108.47     600.00
108.57     756.00
108.67     688.00
108.77     736.69
108.87     659.00
108.97     690.00
109.07     662.94
109.17     680.00
109.27     677.36
109.37     666.00
109.47     633.00
109.57     591.17
109.67     635.92
109.77     618.00
109.87     629.00
109.97     635.15
110.07     609.13
110.17     576.06
110.27     580.00
110.37     568.00
110.47     569.00
110.57     579.51
110.67     523.96
110.77     545.00
110.87     580.00
110.97     543.00
111.07     538.40
111.17     505.45
111.27     535.24
111.37     543.00
111.47     587.00
111.57     528.00
111.67     538.00
111.77     553.00
111.87     541.00
111.97     555.00
112.07     564.00
112.17     585.20
112.27     538.40
112.37     585.00
112.47     596.00
112.57     580.00
112.67     576.71
112.77     677.00
112.87     669.39
112.97     656.00
113.07     681.57
113.17     711.00
113.27     766.87
113.37     756.33
113.47     763.00
113.57     861.00
113.67     942.00
113.77     913.00
113.87     995.00
113.97    1010.00
114.07    1040.00
114.17    1117.10
114.27    1094.00
114.37    1220.00
114.47    1414.00
114.57    1444.00
114.67    1582.56
114.77    1771.00
114.87    1960.00
114.97    2082.00
115.07    2326.00
115.17    2476.85
115.27    2822.00
115.37    2993.49
115.47    3403.44
115.57    3680.10
115.67    3934.00
115.77    4378.00
115.87    4853.72
115.97    5367.91
116.07    5690.75
116.17    5977.00
116.27    6347.33
116.37    6686.00
116.47    6675.00
116.57    6890.00
116.67    6985.00
116.77    6947.21
116.87    6740.00
116.97    6860.93
117.07    6379.14
117.17    6237.86
117.27    5938.89
117.37    5642.22
117.47    5097.00
117.57    4863.77
117.67    4424.00
117.77    4163.00
117.87    3635.70
117.97    3338.00
118.07    2878.72
118.17    2686.00
118.27    2251.00
118.37    2054.39
118.47    1720.00
118.57    1621.00
118.67    1357.00
118.77    1251.00
118.87    1118.00
118.97    1051.00
119.07     991.34
119.17     844.00
119.27     826.32
119.37     785.00
119.47     760.86
119.57     648.00
119.67     721.00
119.77     630.00
119.87     576.00
119.97     586.61
120.07     621.00
120.17     599.00
120.27     556.10
120.37     596.00
120.47     569.00
120.57     610.00
120.67     616.00
120.77     561.00
120.87     608.53
120.97     608.37
121.07     569.00
121.17     560.00
121.27     584.00
121.37     604.95
121.47     569.00
121.57     572.00
121.67     626.00
121.77     587.00
121.87     582.00
121.97     563.00
122.07     635.00
122.17     588.00
122.27     624.00
122.37     664.58
122.47     585.63
122.57     625.00
122.67     642.00
122.77     668.00
122.87     595.00
122.97     588.83
123.07     640.00
123.17     625.00
123.27     640.00
123.37     647.00
123.47     665.00
123.57     631.00
123.67     650.00
123.77     658.00
123.87     666.65
123.97     631.00
124.07     631.00
124.17     609.00
124.27     585.00
124.37     590.59
124.47     623.00
124.57     570.00
124.67     554.10
124.77     620.00
124.87     543.54
124.97     584.00
