  9.97     573.85
 10.07     617.00
 10.17     509.86
 10.27     517.07
 10.37     588.00
 10.47     530.73
 10.57     584.30
 10.67     589.00
 10.77     575.00
 10.87     579.00
 10.97     587.00
 11.07     624.00
 11.17     576.56
 11.27     598.00
 11.37     559.00
 11.47     589.00
 11.57     576.83
 11.67     600.38
 11.77     565.00
 11.87     603.55
 11.97     709.00
 12.07     708.00
 12.17     660.00
 12.27     672.00
 12.37     626.00
 12.47     615.00
 12.57     619.59
 12.67     580.25
 12.77     562.00
 12.87     559.00
 12.97     559.00
 13.07     588.00
 13.17     594.94
 13.27     554.00
 13.37     561.63
 13.47     515.00
 13.57     563.00
 13.67     501.00
 13.77     551.00
 13.87     542.00
 13.97     547.00
 14.07     581.53
 14.17     558.00
 14.27     590.00
 14.37     547.00
 14.47     557.13
 14.57     536.00
 14.67     566.75
 14.77     589.58
 14.87     534.82
 14.97     539.37
 15.07     560.00
 15.17     526.00
 15.27     548.00
 15.37     594.51
 15.47     521.94
 15.57     560.99
 15.67     593.69
 15.77     539.00
 15.87     538.00
 15.97     583.00
 16.07     540.00
 16.17     539.90
 16.27     598.00
 16.37     552.00
 16.47     492.00
 16.57     554.00
 16.67     545.00
 16.77     524.00
 16.87     542.00
 16.97     552.00
 17.07     517.14
 17.17     546.00
 17.27     559.00
 17.37     564.54
 17.47     564.69
 17.57     528.00
 17.67     599.00
 17.77     587.44
 17.87     534.00
 17.97     587.00
 18.07     572.00
 18.17     594.00
 18.27     524.00
 18.37     534.00
 18.47     567.88
 18.57     567.02
 18.67     522.17
 18.77     517.00
 18.87     539.00
 18.97     541.00
 19.07     583.00
 19.17     500.00
 19.27     557.00
 19.37     579.04
 19.47     581.00
 19.57     569.00
 19.67     558.00
 19.77     525.00
 19.87     564.00
 19.97     562.00
 20.07     527.33
 20.17     534.00
 20.27     541.00
 20.37     576.00
 20.47     536.00
 20.57     570.00
 20.67     520.00
 20.77     545.04
 20.87     563.27
 20.97     545.00
 21.07     563.00
 21.17     561.00
 21.27     556.00
 21.37     575.67
 21.47     535.00
 21.57     509.53
 21.67     596.43
 21.77     560.00
 21.87     590.72
 21.97     496.00
 22.07     521.80
 22.17     581.00
 22.27     565.00
 22.37     585.00
 22.47     565.00
 22.57     578.27
 22.67     571.00
 22.77     593.00
 22.87     535.52
 22.97     530.00
 23.07     563.00
 23.17     566.00
 23.27     535.00
 23.37     518.00
 23.47     508.00
 23.57     536.00
 23.67     571.76
 23.77     549.53
 23.87     589.34
 23.97     539.00
 24.07     546.00
 24.17     563.00
 24.27     547.00
 24.37     575.00
 24.47     587.00
 24.57     630.00
 24.67     648.00
 24.77     657.00
 24.87     637.00
 24.97     624.00
 25.07     549.70
 25.17     562.15
 25.27     568.93
 25.37     551.00
 25.47     573.55
 25.57     548.33
 25.67     499.04
 25.77     575.73
 25.87     532.00
 25.97     570.00
 26.07     523.00
 26.17     548.47
 26.27     581.27
 26.37     565.00
 26.47     569.00
 26.57     542.00
 26.67     580.00
 26.77     585.00
 26.87     574.78
 26.97     557.35
 27.07     565.00
 27.17     570.00
 27.27     498.77
 27.37     585.87
 27.47     585.00
 27.57     586.00
 27.67     527.00
 27.77     565.00
 27.87     611.00
 27.97     657.00
 28.07     801.39
 28.17     844.00
 28.27     936.00
 28.37     826.00
 28.47     795.00
 28.57     741.50
 28.67     704.70
 28.77     718.00
 28.87     729.62
 28.97     781.15
 29.07     743.00
 29.17     719.00
 29.27     653.50
 29.37     555.51
 29.47     579.51
 29.57     577.00
 29.67     593.00
 29.77     545.00
 29.87     510.36
 29.97     637.00
 30.07     574.00
 30.17     570.39
 30.27     558.14
 30.37     550.00
 30.47     523.00
 30.57     584.00
 30.67     542.72
 30.77     603.07
 30.87     601.00
 30.97     623.00
 31.07     644.72
 31.17     581.00
 31.27     607.95
 31.37     511.86
 31.47     554.00
 31.57     553.00
 31.67     538.00
 31.77     540.00
 31.87     564.76
 31.97     530.00
 32.07     548.00
 32.17     556.00
 32.27     531.22
 32.37     587.00
 32.47     543.00
 32.57     546.00
 32.67     521.00
 32.77     522.00
 32.87     532.00
 32.97     519.00
 33.07     531.00
 33.17     527.00
 33.27     538.00
 33.37     585.00
 33.47     532.00
 33.57     612.06
 33.67     594.87
 33.77     727.10
 33.87     801.00
 33.97     987.00
 34.07    1039.00
 34.17     982.00
 34.27     921.00
 34.37     795.00
 34.47     675.00
 34.57     576.69
 34.67     549.00
 34.77     519.00
 34.87     548.00
 34.97     561.00
 35.07     516.00
 35.17     554.24
 35.27     530.00
 35.37     486.31
 35.47     541.00
 35.57     507.00
 35.67     520.62
 35.77     557.21
 35.87     514.00
 35.97     551.00
 36.07     459.00
 36.17     519.00
 36.27     525.00
 36.37     486.27
 36.47     494.28
 36.57     519.00
 36.67     509.00
 36.77     484.00
 36.87     513.92
 36.97     496.00
 37.07     512.00
 37.17     487.00
 37.27     467.46
 37.37     537.00
 37.47     552.47
 37.57     535.91
 37.67     506.00
 37.77     501.00
 37.87     521.71
 37.97     505.00
 38.07     506.00
 38.17     514.00
 38.27     479.00
 38.37     544.29
 38.47     530.00
 38.57     506.00
 38.67     488.00
 38.77     482.00
 38.87     516.19
 38.97     473.00
 39.07     452.00
 39.17     508.94
 39.27     489.00
 39.37     506.00
 39.47     532.00
 39.57     505.00
 39.67     514.26
 39.77     543.84
 39.87     488.00
 39.97     468.00
 40.07     535.72
 40.17     474.00
 40.27     515.00
 40.37     496.00
 40.47     474.00
 40.57     497.00
 40.67     531.00
 40.77     519.40
 40.87     534.52
 40.97     500.00
 41.07     516.52
 41.17     484.00
 41.27     505.00
 41.37     470.30
 41.47     509.00
 41.57     494.26
 41.67     508.00
 41.77     463.00
 41.87     476.23
 41.97     467.82
 42.07     499.00
 42.17     516.00
 42.27     550.50
 42.37     578.63
 42.47     552.00
 42.57     582.31
 42.67     546.00
 42.77     594.00
 42.87     583.00
 42.97     570.00
 43.07     600.00
 43.17     527.84
 43.27     481.00
 43.37     525.00
 43.47     490.00
 43.57     500.03
 43.67     457.00
 43.77     511.17
 43.87     504.00
 43.97     468.00
 44.07     492.15
 44.17     496.00
 44.27     510.93
 44.37     490.00
 44.47     506.98
 44.57     475.00
 44.67     524.00
 44.77     524.63
 44.87     465.00
 44.97     498.00
 45.07     532.00
 45.17     504.39
 45.27     528.48
 45.37     475.00
 45.47     578.00
 45.57     464.99
 45.67     522.00
 45.77     463.25
 45.87     478.32
 45.97     461.00
 46.07     498.85
 46.17     500.83
 46.27     528.00
 46.37     474.38
 46.47     539.77
 46.57     459.41
 46.67     516.00
 46.77     514.04
 46.87     504.00
 46.97     507.00
 47.07     464.31
 47.17     478.00
 47.27     510.00
 47.37     516.00
 47.47     530.71
 47.57     548.00
 47.67     557.38
 47.77     570.00
 47.87     561.33
 47.97     553.38
 48.07     546.45
 48.17     560.00
 48.27     551.00
 48.37     584.00
 48.47     561.77
 48.57     516.00
 48.67     508.00
 48.77     557.00
 48.87     568.98
 48.97     507.00
 49.07     510.00
 49.17     522.00
 49.27     570.00
 49.37     558.00
 49.47     602.18
 49.57     635.69
 49.67     793.00
 49.77     920.44
 49.87    1310.00
 49.97    1675.05
 50.07    1993.00
 50.17    2322.62
 50.27    2353.44
 50.37    2285.92
 50.47    1930.00
 50.57    1576.00
 50.67    1173.00
 50.77     893.00
 50.87     759.90
 50.97     642.00
 51.07     622.00
 51.17     593.74
 51.27     650.00
 51.37     610.00
 51.47     605.00
 51.57     569.16
 51.67     553.00
 51.77     538.30
 51.87     533.00
 51.97     581.00
 52.07     521.00
 52.17     521.75
 52.27     576.88
 52.37     578.00
 52.47     555.00
 52.57     534.00
 52.67     604.00
 52.77     535.20
 52.87     567.70
 52.97     692.00
 53.07     741.01
 53.17     790.71
 53.27     962.16
 53.37    1109.00
 53.47    1243.00
 53.57    1223.63
 53.67    1105.00
 53.77    1107.29
 53.87     933.00
 53.97     897.05
 54.07     752.00
 54.17     675.00
 54.27     567.72
 54.37     621.55
 54.47     601.75
 54.57     567.00
 54.67     533.83
 54.77     534.00
 54.87     502.58
 54.97     588.65
 55.07     598.00
 55.17     505.11
 55.27     597.34
 55.37     565.36
 55.47     528.00
 55.57     552.00
 55.67     558.00
 55.77     635.25
 55.87     575.94
 55.97     645.00
 56.07     704.00
 56.17     725.08
 56.27     820.00
 56.37    1008.00
 56.47    1303.84
 56.57    1629.00
 56.67    1964.00
 56.77    2340.12
 56.87    2476.00
 56.97    2571.00
 57.07    2409.00
 57.17    2097.93
 57.27    1834.00
 57.37    1504.00
 57.47    1271.68
 57.57    1004.81
 57.67     844.00
 57.77     755.00
 57.87     685.87
 57.97     674.58
 58.07     679.00
 58.17     730.00
 58.27     756.00
 58.37     821.48
 58.47     810.00
 58.57     882.18
 58.67    1013.00
 58.77    1068.26
 58.87    1209.00
 58.97    1318.10
 59.07    1367.00
 59.17    1382.00
 59.27    1316.00
 59.37    1256.00
 59.47    1226.27
 59.57    1219.00
 59.67    1182.00
 59.77    1188.00
 59.87    1174.42
 59.97    1311.00
 60.07    1382.00
 60.17    1509.00
 60.27    1581.00
 60.37    1507.00
 60.47    1503.00
 60.57    1307.00
 60.67    1161.00
 60.77    1053.00
 60.87     928.12
 60.97     792.00
 61.07     678.04
 61.17     725.00
 61.27     678.00
 61.37     701.00
 61.47     684.00
 61.57     745.00
 61.67     846.00
 61.77     950.34
 61.87    1053.00
 61.97    1120.89
 62.07    1376.39
 62.17    1313.96
 62.27    1305.00
 62.37    1355.69
 62.47    1163.00
 62.57    1042.00
 62.67     961.51
 62.77     810.00
 62.87     753.00
 62.97     681.92
 63.07     579.00
 63.17     567.00
 63.27     625.00
 63.37     554.00
 63.47     585.96
 63.57     581.27
 63.67     569.00
 63.77     558.11
 63.87     648.74
 63.97     604.75
 64.07     636.00
 64.17     747.00
 64.27     848.99
 64.37     809.67
 64.47     887.49
 64.57     977.00
 64.67     985.00
 64.77    1027.00
 64.87     935.99
 64.97     922.00
 65.07     932.00
 65.17     859.00
 65.27     798.07
 65.37     687.00
 65.47     712.00
 65.57     634.00
 65.67     584.00
 65.77     651.45
 65.87     569.00
 65.97     599.97
 66.07     541.00
 66.17     607.59
 66.27     555.00
 66.37     520.90
 66.47     528.53
 66.57     551.00
 66.67     594.36
 66.77     596.00
 66.87     554.92
 66.97     625.00
 67.07     661.91
 67.17     635.36
 67.27     757.00
 67.37     885.00
 67.47     955.00
 67.57    1122.00
 67.67    1338.00
 67.77    1673.00
 67.87    1929.00
 67.97    2158.77
 68.07    2243.63
 68.17    2461.00
 68.27    2352.00
 68.37    2225.00
 68.47    1982.00
 68.57    1783.00
 68.67    1442.00
 68.77    1162.00
 68.87    1021.56
 68.97     890.38
 69.07     800.00
 69.17     723.00
 69.27     689.00
 69.37     628.00
 69.47     592.00
 69.57     595.00
 69.67     614.00
 69.77     540.00
 69.87     575.00
 69.97     535.00
 70.07     588.94
 70.17     580.98
 70.27     576.00
 70.37     577.34
 70.47     592.00
 70.57     523.00
 70.67     555.00
 70.77     621.00
 70.87     628.63
 70.97     625.00
 71.07     658.36
 71.17     708.00
 71.27     842.50
 71.37     868.00
 71.47     974.00
 71.57    1196.00
 71.67    1368.55
 71.77    1517.12
 71.87    1587.00
 71.97    1891.00
 72.07    1847.00
 72.17    1929.00
 72.27    1827.00
 72.37    1753.00
 72.47    1519.00
 72.57    1322.75
 72.67    1128.08
 72.77    1012.39
 72.87     907.00
 72.97     803.00
 73.07     768.00
 73.17     705.00
 73.27     693.03
 73.37     621.00
 73.47     670.54
 73.57     674.00
 73.67     616.86
 73.77     647.40
 73.87     562.00
 73.97     611.00
 74.07     593.00
 74.17     577.31
 74.27     583.00
 74.37     572.42
 74.47     542.68
 74.57     672.00
 74.67     612.72
 74.77     582.71
 74.87     613.16
 74.97     549.24
 75.07     597.00
 75.17     513.38
 75.27     589.96
 75.37     583.00
 75.47     595.00
 75.57     579.02
 75.67     573.00
 75.77     560.00
 75.87     563.84
 75.97     620.00
 76.07     645.00
 76.17     603.00
 76.27     682.81
 76.37     682.00
 76.47     702.00
 76.57     703.00
 76.67     681.79
 76.77     723.38
 76.87     659.02
 76.97     633.97
 77.07     698.00
 77.17     593.00
 77.27     601.00
 77.37     600.00
 77.47     516.00
 77.57     574.00
 77.67     545.95
 77.77     494.00
 77.87     489.27
 77.97     502.00
 78.07     478.00
 78.17     536.00
 78.27     497.00
 78.37     508.00
 78.47     478.20
 78.57     522.95
 78.67     531.77
 78.77     540.23
 78.87     481.42
 78.97     535.22
 79.07     489.57
 79.17     496.46
 79.27     579.00
 79.37     522.80
 79.47     485.67
 79.57     532.91
 79.67     506.00
 79.77     483.00
 79.87     541.00
 79.97     513.98
 80.07     513.85
 80.17     545.00
 80.27     600.65
 80.37     538.07
 80.47     540.00
 80.57     553.00
 80.67     654.47
 80.77     655.60
 80.87     661.00
 80.97     665.00
 81.07     676.00
 81.17     729.00
 81.27     663.00
 81.37     718.14
 81.47     746.00
 81.57     785.57
 81.67     789.00
 81.77     737.00
 81.87     766.56
 81.97     717.00
 82.07     707.00
 82.17     692.46
 82.27     624.00
 82.37     629.44
 82.47     562.00
 82.57     562.00
 82.67     546.64
 82.77     598.96
 82.87     566.00
 82.97     555.00
 83.07     516.00
 83.17     551.00
 83.27     515.00
 83.37     588.79
 83.47     529.00
 83.57     545.00
 83.67     568.00
 83.77     556.00
 83.87     553.00
 83.97     536.00
 84.07     550.94
 84.17     552.00
 84.27     528.00
 84.37     549.00
 84.47     511.00
 84.57     541.00
 84.67     542.00
 84.77     573.84
 84.87     488.81
 84.97     520.47
 85.07     492.90
 85.17     525.00
 85.27     496.91
 85.37     487.76
 85.47     542.00
 85.57     539.00
 85.67     499.00
 85.77     472.40
 85.87     534.00
 85.97     486.87
 86.07     515.00
 86.17     509.00
 86.27     566.00
 86.37     549.00
 86.47     516.00
 86.57     568.00
 86.67     596.00
 86.77     508.44
 86.87     596.00
 86.97     545.00
 87.07     538.09
 87.17     582.34
 87.27     633.41
 87.37     589.00
 87.47     642.22
 87.57     564.00
 87.67     653.00
 87.77     608.00
 87.87     638.00
 87.97     604.00
 88.07     606.10
 88.17     599.00
 88.27     583.00
 88.37     590.34
 88.47     555.00
 88.57     583.00
 88.67     533.06
 88.77     591.20
 88.87     582.00
 88.97     579.00
 89.07     593.00
 89.17     589.00
 89.27     603.00
 89.37     549.23
 89.47     610.11
 89.57     636.32
 89.67     583.00
 89.77     594.00
 89.87     599.38
 89.97     580.00
 90.07     515.28
 90.17     550.00
 90.27     553.00
 90.37     500.00
 90.47     503.00
 90.57     497.00
 90.67     564.15
 90.77     529.00
 90.87     516.00
 90.97     561.70
 91.07     536.00
 91.17     521.73
 91.27     516.00
 91.37     485.96
 91.47     505.00
 91.57     533.00
 91.67     519.39
 91.77     536.00
 91.87     556.07
 91.97     546.00
 92.07     569.00
 92.17     544.00
 92.27     583.00
 92.37     572.50
 92.47     611.00
 92.57     577.00
 92.67     678.00
 92.77     670.00
 92.87     697.18
 92.97     735.00
 93.07     734.01
 93.17     717.00
 93.27     752.00
 93.37     738.00
 93.47     756.70
 93.57     786.00
 93.67     764.00
 93.77     791.58
 93.87     821.00
 93.97     799.02
 94.07     810.14
 94.17     803.99
 94.27     781.21
 94.37     890.10
 94.47     804.84
 94.57     874.00
 94.67     806.57
 94.77     914.00
 94.87     980.00
 94.97     832.58
 95.07     877.00
 95.17     835.02
 95.27     839.00
 95.37     836.60
 95.47     794.00
 95.57     783.00
 95.67     689.00
 95.77     731.00
 95.87     669.00
 95.97     728.00
 96.07     710.00
 96.17     679.68
 96.27     733.66
 96.37     692.00
 96.47     783.74
 96.57     798.00
 96.67     903.02
 96.77     932.00
 96.87     963.43
 96.97    1087.00
 97.07    1172.07
 97.17    1212.00
 97.27    1313.00
 97.37    1331.00
 97.47    1444.65
 97.57    1356.44
 97.67    1509.68
 97.77    1465.00
 97.87    1335.00
 97.97    1394.90
 98.07    1288.00
 98.17    1297.00
 98.27    1234.89
 98.37    1121.00
 98.47    1093.07
 98.57    1005.00
 98.67     942.03
 98.77     909.00
 98.87     854.00
 98.97     809.00
 99.07     808.00
 99.17     888.00
 99.27     867.03
 99.37     952.00
 99.47    1000.00
 99.57    1059.78
 99.67    1125.01
 99.77    1230.00
 99.87    1263.00
 99.97    1422.00
100.07    1503.00
100.17    1546.23
100.27    1626.00
100.37    1775.90
100.47    1868.00
100.57    2023.44
100.67    2063.18
100.77    2030.00
100.87    2047.00
100.97    2063.81
101.07    1932.34
101.17    1897.00
101.27    1894.00
101.37    1820.79
101.47    1668.60
101.57    1591.00
101.67    1465.00
101.77    1427.00
101.87    1405.00
101.97    1383.00
102.07    1313.00
102.17    1214.26
102.27    1216.10
102.37    1161.00
102.47    1186.00
102.57    1065.00
102.67    1138.00
102.77    1078.00
102.87    1081.00
102.97    1045.75
103.07    1048.53
103.17     997.09
103.27     881.00
103.37     886.00
103.47     876.00
103.57     862.00
103.67     734.06
103.77     691.00
103.87     675.00
103.97     684.00
104.07     638.25
104.17     635.00
104.27     563.00
104.37     557.00
104.47     620.00
104.57     569.00
104.67     558.00
104.77     560.00
104.87     561.00
104.97     559.00
105.07     562.04
105.17     519.22
105.27     542.00
105.37     544.25
105.47     493.79
105.57     554.00
105.67     568.00
105.77     524.57
105.87     528.79
105.97     544.55
106.07     569.00
106.17     546.00
106.27     615.50
106.37     626.14
106.47     650.00
106.57     606.00
106.67     610.00
106.77     592.17
106.87     633.00
106.97     654.00
107.07     638.04
107.17     693.58
107.27     682.00
107.37     649.77
107.47     691.00
107.57     645.00
107.67     733.75
107.77     676.00
107.87     663.00
107.97     688.09
108.07     709.23
108.17     663.00
108.27     647.00
108.37     646.00
108.47     655.00
108.57     713.18
108.67     678.69
108.77     691.00
108.87     702.00
108.97     681.00
109.07     714.62
109.17     672.00
109.27     700.00
109.37     626.00
109.47     704.00
109.57     630.00
109.67     639.00
109.77     636.00
109.87     613.00
109.97     579.35
110.07     621.82
110.17     606.00
110.27     544.00
110.37     593.00
110.47     554.00
110.57     597.70
110.67     523.07
110.77     557.94
110.87     617.00
110.97     528.00
111.07     570.62
111.17     541.52
111.27     535.00
111.37     601.00
111.47     577.37
111.57     527.00
111.67     507.74
111.77     533.00
111.87     586.55
111.97     577.31
112.07     575.55
112.17     555.00
112.27     527.62
112.37     575.00
112.47     545.00
112.57     562.00
112.67     572.00
112.77     551.00
112.87     585.00
112.97     658.92
113.07     613.25
113.17     655.23
113.27     685.54
113.37     594.00
113.47     623.00
113.57     697.00
113.67     659.50
113.77     696.00
113.87     700.09
113.97     786.94
114.07     775.33
114.17     832.49
114.27     921.00
114.37    1001.00
114.47    1028.00
114.57    1161.78
114.67    1227.18
114.77    1451.00
114.87    1594.00
114.97    1801.00
115.07    2046.00
115.17    2096.94
115.27    2536.00
115.37    2734.95
115.47    3189.00
115.57    3308.00
115.67    3809.00
115.77    4163.00
115.87    4563.90
115.97    4759.00
116.07    5178.00
116.17    5639.93
116.27    5894.00
116.37    6129.00
116.47    6671.00
116.57    6770.00
116.67    6550.00
116.77    6994.00
116.87    6894.54
116.97    6767.87
117.07    6498.06
117.17    6363.00
117.27    6111.00
117.37    5691.00
117.47    5315.00
117.57    5022.00
117.67    4716.00
117.77    4466.00
117.87    4115.00
117.97    3675.27
118.07    3454.45
118.17    3039.00
118.27    2785.00
118.37    2430.00
118.47    2199.00
118.57    1921.00
118.67    1718.19
118.77    1548.00
118.87    1474.50
118.97    1293.89
119.07    1174.00
119.17    1073.02
119.27     959.98
119.37     918.85
119.47     786.68
119.57     791.27
119.67     744.00
119.77     731.08
119.87     692.00
119.97     703.35
120.07     610.80
120.17     584.00
120.27     574.00
120.37     612.44
120.47     600.00
120.57     570.00
120.67     593.00
120.77     630.00
120.87     571.00
120.97     505.00
121.07     620.04
121.17     561.00
121.27     604.97
121.37     594.00
121.47     554.00
121.57     577.00
121.67     577.00
121.77     601.47
121.87     572.14
121.97     584.00
122.07     565.00
122.17     617.00
122.27     608.05
122.37     606.70
122.47     615.00
122.57     604.00
122.67     605.00
122.77     623.00
122.87     659.57
122.97     603.00
123.07     597.50
123.17     647.00
123.27     665.00
123.37     649.00
123.47     599.30
123.57     629.00
123.67     646.70
123.77     597.00
123.87     620.00
123.97     626.00
124.07     637.72
124.17     563.71
124.27     574.00
124.37     641.98
124.47     611.00
124.57     545.17
124.67     566.45
124.77     585.87
124.87     559.34
124.97     614.00
