  9.97     601.00
 10.07     613.00
 10.17     606.75
 10.27     633.00
 10.37     587.00
 10.47     594.00
 10.57     602.00
 10.67     577.00
 10.77     607.00
 10.87     588.33
 10.97     581.00
 11.07     529.00
 11.17     567.68
 11.27     541.00
 11.37     608.00
 11.47     542.82
 11.57     601.00
 11.67     581.00
 11.77     614.00
 11.87     605.00
 11.97     668.71
 12.07     668.00
 12.17     709.00
 12.27     644.00
 12.37     632.37
 12.47     633.00
 12.57     560.70
 12.67     555.00
 12.77     580.00
 12.87     607.57
 12.97     535.67
 13.07     586.90
 13.17     562.85
 13.27     560.08
 13.37     566.21
 13.47     522.00
 13.57     556.87
 13.67     543.00
 13.77     608.88
 13.87     530.00
 13.97     539.00
 14.07     607.47
 14.17     557.00
 14.27     540.00
 14.37     527.00
 14.47     538.00
 14.57     587.00
 14.67     574.75
 14.77     602.35
 14.87     584.00
 14.97     526.00
 15.07     556.00
 15.17     603.79
 15.27     595.00
 15.37     574.44
 15.47     547.00
 15.57     567.44
 15.67     523.31
 15.77     579.00
 15.87     535.55
 15.97     578.58
 16.07     629.00
 16.17     553.70
 16.27     586.76
 16.37     599.00
 16.47     562.87
 16.57     566.00
 16.67     578.00
 16.77     609.00
 16.87     534.08
 16.97     540.00
 17.07     570.00
 17.17     574.00
 17.27     531.07
 17.37     525.76
 17.47     539.00
 17.57     520.00
 17.67     558.91
 17.77     546.38
 17.87     552.00
 17.97     578.00
 18.07     538.00
 18.17     557.68
 18.27     528.00
 18.37     575.00
 18.47     555.64
 18.57     552.00
 18.67     572.03
 18.77     523.51
 18.87     574.00
 18.97     604.00
 19.07     527.63
 19.17     565.54
 19.27     594.00
 19.37     540.00
 19.47     568.00
 19.57     559.00
 19.67     585.78
 19.77     597.69
 19.87     564.00
 19.97     550.00
 20.07     519.00
 20.17     583.61
 20.27     600.82
 20.37     534.03
 20.47     544.00
 20.57     568.00
 20.67     514.00
 20.77     548.00
 20.87     552.00
 20.97     574.00
 21.07     537.55
 21.17     569.00
 21.27     593.51
 21.37     533.00
 21.47     555.04
 21.57     588.92
 21.67     514.84
 21.77     549.00
 21.87     530.17
 21.97     566.00
 22.07     535.00
 22.17     547.41
 22.27     524.00
 22.37     566.74
 22.47     561.00
 22.57     562.56
 22.67     572.00
 22.77     546.00
 22.87     545.00
 22.97     553.00
 23.07     544.51
 23.17     557.43
 23.27     570.00
 23.37     517.91
 23.47     613.00
 23.57     578.00
 23.67     579.51
 23.77     523.91
 23.87     564.00
 23.97     565.11
 24.07     544.00
 24.17     511.88
 24.27     539.43
 24.37     577.00
 24.47     543.60
 24.57     593.00
 24.67     636.60
 24.77     630.00
 24.87     667.80
 24.97     582.42
 25.07     630.00
 25.17     564.00
 25.27     568.41
 25.37     513.00
 25.47     527.00
 25.57     517.00
 25.67     557.00
 25.77     559.00
 25.87     567.00
 25.97     573.00
 26.07     585.00
 26.17     544.00
 26.27     534.65
 26.37     528.00
 26.47     544.00
 26.57     563.00
 26.67     515.22
 26.77     567.00
 26.87     592.00
 26.97     576.02
 27.07     541.88
 27.17     600.00
 27.27     509.13
 27.37     541.27
 27.47     508.44
 27.57     569.00
 27.67     518.12
 27.77     547.00
 27.87     627.00
 27.97     684.00
 28.07     775.95
 28.17     860.45
 28.27     928.78
 28.37     849.46
 28.47     782.00
 28.57     723.00
 28.67     739.00
 28.77     770.22
 28.87     853.83
 28.97     827.00
 29.07     767.00
 29.17     727.00
 29.27     630.00
 29.37     620.00
 29.47     616.00
 29.57     606.00
 29.67     620.47
 29.77     602.15
 29.87     550.00
 29.97     538.00
 30.07     571.00
 30.17     584.43
 30.27     536.59
 30.37     562.00
 30.47     535.00
 30.57     542.00
 30.67     543.27
 30.77     607.00
 30.87     609.00
 30.97     572.49
 31.07     623.00
 31.17     566.17
 31.27     545.00
 31.37     585.00
 31.47     505.00
 31.57     566.00
 31.67     525.53
 31.77     545.00
 31.87     567.81
 31.97     500.29
 32.07     521.04
 32.17     574.00
 32.27     539.00
 32.37     562.31
 32.47     522.34
 32.57     518.47
 32.67     566.00
 32.77     568.00
 32.87     524.25
 32.97     538.00
 33.07     503.88
 33.17     558.76
 33.27     502.00
 33.37     560.00
 33.47     591.53
 33.57     579.11
 33.67     668.03
 33.77     703.16
 33.87     893.00
 33.97    1050.00
 34.07    1075.00
 34.17    1070.07
 34.27     881.67
 34.37     739.00
 34.47     642.00
 34.57     548.97
 34.67     586.34
 34.77     538.00
 34.87     566.00
 34.97     559.00
 35.07     538.00
 35.17     535.75
 35.27     552.00
 35.37     480.75
 35.47     482.00
 35.57     538.58
 35.67     499.00
 35.77     524.00
 35.87     517.00
 35.97     523.00
 36.07     516.00
 36.17     516.00
 36.27     477.00
 36.37     496.00
 36.47     505.00
 36.57     505.00
 36.67     520.74
 36.77     473.08
 36.87     515.00
 36.97     536.00
 37.07     525.05
 37.17     488.00
 37.27     541.00
 37.37     520.00
 37.47     498.00
 37.57     537.83
 37.67     562.84
 37.77     492.00
 37.87     555.45
 37.97     478.08
 38.07     522.00
 38.17     496.00
 38.27     500.13
 38.37     519.17
 38.47     495.00
 38.57     504.00
 38.67     507.41
 38.77     471.12
 38.87     513.00
 38.97     541.47
 39.07     537.33
 39.17     469.67
 39.27     528.22
 39.37     482.00
 39.47     519.00
 39.57     497.94
 39.67     489.00
 39.77     516.13
 39.87     531.07
 39.97     487.00
 40.07     528.88
 40.17     517.00
 40.27     476.00
 40.37     469.90
 40.47     475.00
 40.57     494.00
 40.67     463.00
 40.77     538.85
 40.87     478.00
 40.97     498.00
 41.07     516.00
 41.17     476.00
 41.27     475.68
 41.37     530.00
 41.47     535.68
 41.57     494.00
 41.67     466.92
 41.77     521.00
 41.87     541.43
 41.97     483.00
 42.07     528.40
 42.17     516.82
 42.27     502.21
 42.37     556.00
 42.47     612.88
 42.57     605.86
 42.67     636.00
 42.77     624.83
 42.87     612.00
 42.97     542.00
 43.07     523.00
 43.17     560.00
 43.27     523.00
 43.37     489.48
 43.47     502.00
 43.57     486.51
 43.67     544.98
 43.77     523.97
 43.87     518.00
 43.97     476.88
 44.07     469.26
 44.17     529.04
 44.27     483.00
 44.37     534.19
 44.47     500.00
 44.57     505.00
 44.67     504.00
 44.77     485.00
 44.87     468.77
 44.97     548.00
 45.07     497.00
 45.17     501.43
 45.27     528.00
 45.37     468.84
 45.47     510.00
 45.57     496.29
 45.67     492.00
 45.77     459.00
 45.87     537.00
 45.97     541.40
 46.07     506.00
 46.17     498.19
 46.27     506.00
 46.37     497.00
 46.47     491.00
 46.57     504.00
 46.67     466.00
 46.77     500.54
 46.87     499.00
 46.97     511.00
 47.07     531.00
 47.17     542.00
 47.27     512.00
 47.37     558.00
 47.47     565.00
 47.57     517.64
 47.67     537.00
 47.77     585.80
 47.87     586.00
 47.97     551.54
 48.07     617.11
 48.17     544.00
 48.27     563.00
 48.37     524.35
 48.47     491.44
 48.57     511.00
 48.67     560.00
 48.77     533.99
 48.87     559.53
 48.97     582.40
 49.07     530.96
 49.17     622.58
 49.27     633.83
 49.37     680.66
 49.47     728.41
 49.57     779.27
 49.67     889.00
 49.77    1109.00
 49.87    1496.77
 49.97    1858.18
 50.07    2214.00
 50.17    2501.00
 50.27    2512.00
 50.37    2237.00
 50.47    1892.00
 50.57    1403.00
 50.67    1064.60
 50.77     823.00
 50.87     768.10
 50.97     644.00
 51.07     659.45
 51.17     593.80
 51.27     573.42
 51.37     587.00
 51.47     579.00
 51.57     521.00
 51.67     557.00
 51.77     585.12
 51.87     519.00
 51.97     560.00
 52.07     542.62
 52.17     581.00
 52.27     556.00
 52.37     521.96
 52.47     580.00
 52.57     564.00
 52.67     513.76
 52.77     623.00
 52.87     645.00
 52.97     704.00
 53.07     785.00
 53.17     882.00
 53.27    1068.00
 53.37    1132.52
 53.47    1201.46
 53.57    1180.00
 53.67    1052.00
 53.77     930.00
 53.87     859.00
 53.97     720.26
 54.07     720.43
 54.17     652.00
 54.27     551.00
 54.37     576.83
 54.47     551.00
 54.57     511.00
 54.67     581.00
 54.77     529.32
 54.87     526.00
 54.97     536.00
 55.07     512.51
 55.17     587.58
 55.27     535.00
 55.37     537.00
 55.47     544.93
 55.57     575.00
 55.67     563.63
 55.77     582.00
 55.87     632.00
 55.97     650.98
 56.07     678.00
 56.17     721.00
 56.27     879.00
 56.37    1045.00
 56.47    1403.59
 56.57    1746.00
 56.67    2202.98
 56.77    2425.00
 56.87    2673.00
 56.97    2617.00
 57.07    2422.84
 57.17    2056.00
 57.27    1592.26
 57.37    1234.28
 57.47    1060.38
 57.57     877.00
 57.67     704.53
 57.77     676.69
 57.87     666.08
 57.97     643.14
 58.07     695.00
 58.17     695.00
 58.27     738.00
 58.37     866.55
 58.47     981.00
 58.57    1082.00
 58.67    1298.00
 58.77    1369.00
 58.87    1519.00
 58.97    1571.00
 59.07    1547.65
 59.17    1555.37
 59.27    1441.00
 59.37    1360.00
 59.47    1225.00
 59.57    1272.00
 59.67    1190.00
 59.77    1092.31
 59.87    1191.00
 59.97    1275.47
 60.07    1515.00
 60.17    1539.20
 60.27    1527.00
 60.37    1571.00
 60.47    1471.00
 60.57    1310.00
 60.67    1073.90
 60.77     883.16
 60.87     828.94
 60.97     717.52
 61.07     695.00
 61.17     635.00
 61.27     629.00
 61.37     629.57
 61.47     717.08
 61.57     715.60
 61.67     827.62
 61.77     922.00
 61.87    1117.00
 61.97    1241.00
 62.07    1334.59
 62.17    1429.00
 62.27    1369.00
 62.37    1361.00
 62.47    1218.00
 62.57    1051.22
 62.67     885.00
 62.77     784.00
 62.87     670.00
 62.97     667.00
 63.07     568.00
 63.17     574.00
 63.27     583.00
 63.37     575.00
 63.47     518.00
 63.57     547.47
 63.67     576.00
 63.77     553.76
 63.87     661.00
 63.97     639.00
 64.07     710.39
 64.17     777.17
 64.27     857.12
 64.37     906.50
 64.47     910.73
 64.57     994.00
 64.67    1028.00
 64.77    1010.00
 64.87     907.07
 64.97     917.00
 65.07     798.00
 65.17     833.03
 65.27     764.00
 65.37     729.00
 65.47     606.95
 65.57     608.62
 65.67     566.00
 65.77     616.00
 65.87     594.22
 65.97     533.63
 66.07     524.00
 66.17     532.94
 66.27     549.00
 66.37     521.00
 66.47     499.00
 66.57     537.00
 66.67     556.00
 66.77     569.99
 66.87     594.83
 66.97     615.00
 67.07     587.00
 67.17     687.00
 67.27     792.00
 67.37     875.00
 67.47     995.15
 67.57    1283.00
 67.67    1498.00
 67.77    1824.00
 67.87    1988.05
 67.97    2280.69
 68.07    2455.42
 68.17    2314.46
 68.27    2320.00
 68.37    2013.77
 68.47    1700.49
 68.57    1558.00
 68.67    1294.00
 68.77    1068.00
 68.87     854.00
 68.97     776.00
 69.07     711.00
 69.17     659.00
 69.27     631.00
 69.37     573.43
 69.47     561.00
 69.57     571.00
 69.67     598.00
 69.77     583.00
 69.87     523.19
 69.97     586.23
 70.07     563.00
 70.17     523.00
 70.27     572.00
 70.37     600.00
 70.47     538.00
 70.57     550.00
 70.67     584.00
 70.77     558.86
 70.87     606.00
 70.97     636.00
 71.07     719.93
 71.17     760.52
 71.27     887.00
 71.37     876.00
 71.47    1093.00
 71.57    1229.00
 71.67    1416.00
 71.77    1588.25
 71.87    1767.00
 71.97    1871.04
 72.07    1933.00
 72.17    1905.00
 72.27    1805.00
 72.37    1727.00
 72.47    1548.90
 72.57    1329.24
 72.67    1209.00
 72.77    1028.00
 72.87     957.57
 72.97     900.00
 73.07     828.00
 73.17     818.31
 73.27     675.00
 73.37     691.00
 73.47     632.00
 73.57     611.00
 73.67     650.00
 73.77     569.46
 73.87     554.73
 73.97     606.00
 74.07     572.00
 74.17     559.76
 74.27     649.00
 74.37     621.00
 74.47     593.00
 74.57     643.00
 74.67     540.28
 74.77     616.00
 74.87     642.00
 74.97     632.00
 75.07     587.82
 75.17     594.93
 75.27     572.00
 75.37     594.26
 75.47     523.00
 75.57     551.09
 75.67     519.28
 75.77     580.00
 75.87     578.00
 75.97     602.00
 76.07     620.00
 76.17     635.42
 76.27     645.00
 76.37     660.00
 76.47     738.39
 76.57     704.35
 76.67     722.78
 76.77     711.00
 76.87     660.00
 76.97     639.00
 77.07     603.00
 77.17     597.58
 77.27     616.00
 77.37     561.00
 77.47     521.00
 77.57     500.00
 77.67     540.00
 77.77     561.00
 77.87     561.93
 77.97     522.00
 78.07     558.00
 78.17     528.00
 78.27     555.00
 78.37     539.00
 78.47     545.00
 78.57     568.00
 78.67     513.00
 78.77     521.00
 78.87     538.00
 78.97     508.00
 79.07     552.00
 79.17     523.00
 79.27     502.00
 79.37     558.58
 79.47     559.13
 79.57     516.00
 79.67     526.00
 79.77     542.00
 79.87     546.00
 79.97     536.00
 80.07     552.00
 80.17     538.00
 80.27     571.00
 80.37     627.38
 80.47     605.00
 80.57     564.00
 80.67     609.00
 80.77     660.00
 80.87     633.14
 80.97     678.00
 81.07     692.00
 81.17     754.90
 81.27     752.00
 81.37     785.75
 81.47     785.00
 81.57     774.27
 81.67     738.00
 81.77     737.00
 81.87     665.68
 81.97     722.76
 82.07     660.00
 82.17     668.00
 82.27     590.94
 82.37     594.32
 82.47     605.00
 82.57     612.00
 82.67     573.23
 82.77     598.58
 82.87     574.45
 82.97     541.00
 83.07     546.00
 83.17     557.00
 83.27     552.12
 83.37     545.00
 83.47     586.00
 83.57     535.00
 83.67     565.60
 83.77     531.73
 83.87     561.91
 83.97     561.88
 84.07     541.77
 84.17     579.00
 84.27     548.00
 84.37     564.88
 84.47     557.00
 84.57     572.73
 84.67     543.32
 84.77     558.00
 84.87     533.00
 84.97     509.00
 85.07     552.00
 85.17     512.00
 85.27     537.00
 85.37     515.00
 85.47     461.00
 85.57     531.00
 85.67     573.40
 85.77     555.52
 85.87     516.00
 85.97     567.12
 86.07     555.00
 86.17     513.73
 86.27     517.00
 86.37     543.00
 86.47     547.00
 86.57     609.00
 86.67     606.00
 86.77     585.00
 86.87     551.99
 86.97     612.00
 87.07     586.00
 87.17     622.00
 87.27     645.86
 87.37     621.00
 87.47     607.34
 87.57     640.00
 87.67     684.00
 87.77     631.00
 87.87     630.00
 87.97     651.00
 88.07     593.00
 88.17     619.00
 88.27     607.00
 88.37     539.10
 88.47     606.00
 88.57     556.00
 88.67     590.96
 88.77     565.25
 88.87     602.00
 88.97     614.00
 89.07     624.00
 89.17     579.00
 89.27     616.00
 89.37     580.46
 89.47     634.88
 89.57     576.11
 89.67     586.29
 89.77     557.72
 89.87     611.00
 89.97     524.00
 90.07     594.14
 90.17     499.00
 90.27     546.00
 90.37     521.00
 90.47     535.00
 90.57     516.00
 90.67     512.08
 90.77     575.32
 90.87     508.22
 90.97     526.00
 91.07     520.00
 91.17     553.00
 91.27     529.58
 91.37     498.18
 91.47     564.57
 91.57     502.00
 91.67     519.00
 91.77     568.22
 91.87     521.42
 91.97     576.54
 92.07     563.00
 92.17     577.66
 92.27     590.00
 92.37     618.24
 92.47     598.55
 92.57     667.00
 92.67     653.00
 92.77     729.13
 92.87     729.00
 92.97     773.00
 93.07     741.82
 93.17     809.00
 93.27     762.00
 93.37     754.56
 93.47     844.00
 93.57     849.00
 93.67     810.00
 93.77     853.42
 93.87     829.62
 93.97     834.00
 94.07     863.00
 94.17     866.00
 94.27     889.00
 94.37     905.00
 94.47     892.00
 94.57     949.00
 94.67     928.00
 94.77     883.35
 94.87     890.28
 94.97     918.39
 95.07     842.59
 95.17     834.01
 95.27     832.00
 95.37     812.00
 95.47     747.00
 95.57     746.00
 95.67     759.93
 95.77     717.00
 95.87     708.00
 95.97     645.00
 96.07     684.00
 96.17     710.00
 96.27     771.82
 96.37     783.02
 96.47     854.32
 96.57     844.00
 96.67     901.19
 96.77     939.00
 96.87    1063.00
 96.97    1171.94
 97.07    1207.00
 97.17    1312.00
 97.27    1360.00
 97.37    1431.00
 97.47    1473.00
 97.57    1428.63
 97.67    1354.12
 97.77    1463.23
 97.87    1325.00
 97.97    1332.00
 98.07    1285.00
 98.17    1141.00
 98.27    1086.00
 98.37    1053.00
 98.47     944.00
 98.57     909.43
 98.67     852.00
 98.77     797.00
 98.87     794.00
 98.97     810.00
 99.07     801.00
 99.17     786.00
 99.27     838.00
 99.37     929.00
 99.47    1077.00
 99.57    1123.00
 99.67    1161.00
 99.77    1307.72
 99.87    1402.78
 99.97    1528.00
100.07    1581.55
100.17    1763.00
100.27    1787.39
100.37    1953.00
100.47    2060.00
100.57    2043.90
100.67    2111.00
100.77    2159.70
100.87    2053.61
100.97    2078.00
101.07    2036.00
101.17    1958.00
101.27    1759.63
101.37    1756.00
101.47    1548.00
101.57    1531.00
101.67    1402.00
101.77    1398.53
101.87    1273.90
101.97    1227.00
102.07    1219.00
102.17    1185.00
102.27    1085.91
102.37    1079.00
102.47    1100.00
102.57    1050.00
102.67     996.90
102.77    1040.00
102.87     953.00
102.97     960.00
103.07     939.84
103.17     908.54
103.27     878.00
103.37     788.00
103.47     790.00
103.57     766.05
103.67     724.00
103.77     626.00
103.87     644.23
103.97     649.00
104.07     579.43
104.17     614.00
104.27     568.00
104.37     538.77
104.47     558.00
104.57     573.48
104.67     554.00
104.77     538.00
104.87     596.00
104.97     571.00
105.07     553.00
105.17     544.00
105.27     563.00
105.37     527.00
105.47     547.74
105.57     550.00
105.67     572.57
105.77     528.14
105.87     529.00
105.97     548.00
106.07     557.22
106.17     549.42
106.27     597.00
106.37     575.57
106.47     650.00
106.57     593.00
106.67     681.21
106.77     574.00
106.87     699.70
106.97     719.00
107.07     630.00
107.17     683.26
107.27     643.00
107.37     654.00
107.47     695.00
107.57     717.00
107.67     656.00
107.77     672.00
107.87     663.00
107.97     678.55
108.07     718.63
108.17     696.99
108.27     706.52
108.37     708.00
108.47     686.00
108.57     695.00
108.67     705.00
108.77     713.61
108.87     729.00
108.97     706.00
109.07     644.00
109.17     664.00
109.27     626.00
109.37     619.00
109.47     562.00
109.57     598.00
109.67     586.00
109.77     593.00
109.87     609.00
109.97     591.17
110.07     571.32
110.17     581.21
110.27     598.00
110.37     578.00
110.47     565.39
110.57     550.00
110.67     585.00
110.77     529.00
110.87     522.00
110.97     566.73
111.07     591.00
111.17     516.00
111.27     527.00
111.37     498.35
111.47     562.55
111.57     571.00
111.67     574.64
111.77     540.00
111.87     589.49
111.97     573.00
112.07     560.58
112.17     601.95
112.27     616.00
112.37     570.00
112.47     591.63
112.57     618.00
112.67     604.00
112.77     628.00
112.87     608.38
112.97     608.00
113.07     710.00
113.17     729.49
113.27     683.00
113.37     746.00
113.47     786.00
113.57     841.00
113.67     878.00
113.77     939.00
113.87     918.30
113.97     984.00
114.07     957.00
114.17    1112.00
114.27    1112.00
114.37    1264.46
114.47    1426.00
114.57    1451.00
114.67    1556.00
114.77    1685.68
114.87    1926.75
114.97    2002.61
115.07    2190.66
115.17    2515.76
115.27    2805.00
115.37    3186.57
115.47    3352.16
115.57    3689.00
115.67    4259.36
115.77    4350.00
115.87    4750.00
115.97    5287.77
116.07    5583.00
116.17    5950.00
116.27    6465.90
116.37    6680.19
116.47    6690.00
116.57    6929.00
116.67    6975.00
116.77    6831.07
116.87    6955.00
116.97    6633.00
117.07    6408.00
117.17    6212.00
117.27    5644.00
117.37    5228.00
117.47    5061.00
117.57    4616.00
117.67    4287.00
117.77    3976.00
117.87    3480.97
117.97    3344.00
118.07    2944.00
118.17    2567.00
118.27    2272.68
118.37    2023.00
118.47    1807.00
118.57    1552.00
118.67    1422.66
118.77    1230.90
118.87    1080.00
118.97     991.00
119.07     953.00
119.17     942.53
119.27     848.45
119.37     817.39
119.47     757.00
119.57     709.15
119.67     675.71
119.77     639.00
119.87     643.00
119.97     638.00
120.07     642.61
120.17     581.00
120.27     561.23
120.37     614.00
120.47     560.00
120.57     596.00
120.67     607.42
120.77     555.48
120.87     579.00
120.97     605.00
121.07     577.00
121.17     560.77
121.27     558.00
121.37     582.01
121.47     587.00
121.57     581.00
121.67     566.00
121.77     569.60
121.87     590.00
121.97     615.00
122.07     631.00
122.17     612.00
122.27     664.00
122.37     587.00
122.47     579.74
122.57     596.00
122.67     620.00
122.77     632.00
122.87     643.00
122.97     627.00
123.07     612.00
123.17     645.00
123.27     666.22
123.37     602.20
123.47     637.00
123.57     611.00
123.67     688.00
123.77     598.00
123.87     650.06
123.97     653.00
124.07     601.00
124.17     617.00
124.27     603.00
124.37     640.00
124.47     632.00
124.57     584.00
124.67     580.91
124.77     614.94
124.87     601.00
124.97     600.00
