  9.97     640.00
 10.07     633.57
 10.17     645.00
 10.27     663.00
 10.37     560.01
 10.47     596.60
 10.57     640.00
 10.67     600.84
 10.77     535.43
 10.87     610.00
 10.97     650.70
 11.07     624.00
 11.17     543.50
 11.27     592.00
 11.37     614.58
 11.47     642.27
 11.57     626.00
 11.67     646.00
 11.77     649.00
 11.87     700.00
 11.97     717.00
 12.07     721.00
 12.17     685.95
 12.27     729.00
 12.37     760.93
 12.47     654.00
 12.57     643.00
 12.67     613.33
 12.77     595.00
 12.87     666.82
 12.97     587.00
 13.07     597.00
 13.17     619.64
 13.27     659.31
 13.37     548.00
 13.47     643.24
 13.57     560.02
 13.67     584.00
 13.77     571.63
 13.87     649.00
 13.97     600.12
 14.07     615.00
 14.17     633.78
 14.27     553.79
 14.37     555.00
 14.47     607.00
 14.57     639.59
 14.67     549.47
 14.77     642.93
 14.87     580.00
 14.97     572.00
 15.07     556.50
 15.17     564.21
 15.27     569.00
 15.37     606.00
 15.47     565.00
 15.57     569.00
 15.67     576.00
 15.77     641.05
 15.87     565.00
 15.97     595.00
 16.07     612.06
 16.17     545.00
 16.27     577.76
 16.37     580.00
 16.47     597.00
 16.57     624.98
 16.67     592.00
 16.77     574.16
 16.87     562.15
 16.97     606.00
 17.07     578.33
 17.17     573.00
 17.27     614.00
 17.37     629.01
 17.47     619.00
 17.57     606.00
 17.67     571.00
 17.77     599.00
 17.87     571.00
 17.97     583.00
 18.07     577.63
 18.17     553.00
 18.27     566.33
 18.37     609.48
 18.47     594.00
 18.57     622.00
 18.67     554.00
 18.77     579.00
 18.87     585.22
 18.97     580.00
 19.07     574.00
 19.17     547.91
 19.27     573.00
 19.37     551.00
 19.47     609.00
 19.57     570.42
 19.67     585.00
 19.77     560.00
 19.87     581.01
 19.97     593.00
 20.07     594.09
 20.17     573.00
 20.27     560.00
 20.37     570.00
 20.47     590.00
 20.57     546.00
 20.67     601.00
 20.77     558.00
 20.87     547.74
 20.97     556.57
 21.07     603.00
 21.17     562.00
 21.27     599.00
 21.37     544.00
 21.47     600.00
 21.57     617.00
 21.67     599.90
 21.77     580.00
 21.87     584.00
 21.97     594.00
 22.07     652.10
 22.17     632.00
 22.27     635.11
 22.37     608.00
 22.47     579.00
 22.57     547.00
 22.67     585.59
 22.77     553.00
 22.87     578.00
 22.97     592.00
 23.07     545.00
 23.17     592.00
 23.27     607.00
 23.37     571.62
 23.47     595.00
 23.57     625.00
 23.67     613.00
 23.77     630.25
 23.87     568.00
 23.97     622.14
 24.07     641.50
 24.17     588.93
 24.27     631.24
 24.37     659.00
 24.47     660.00
 24.57     619.00
 24.67     657.00
 24.77     673.54
 24.87     698.00
 24.97     706.00
 25.07     664.00
 25.17     674.00
 25.27     647.00
 25.37     649.00
 25.47     548.97
 25.57     623.00
 25.67     567.32
 25.77     672.00
 25.87     594.00
 25.97     626.00
 26.07     600.00
 26.17     605.00
 26.27     602.00
 26.37     588.00
 26.47     619.00
 26.57     639.00
 26.67     626.01
 26.77     640.00
 26.87     606.00
 26.97     633.00
 27.07     621.00
 27.17     639.28
 27.27     605.00
 27.37     638.00
 27.47     642.00
 27.57     647.71
 27.67     701.00
 27.77     687.00
 27.87     620.20
 27.97     678.39
 28.07     750.12
 28.17     777.52
 28.27     902.00
 28.37     945.00
 28.47     910.28
 28.57     830.79
 28.67     789.83
 28.77     797.00
 28.87     764.14
 28.97     825.00
 29.07     888.00
 29.17     887.00
 29.27     821.00
 29.37     751.23
 29.47     663.00
 29.57     655.00
 29.67     616.51
 29.77     697.00
 29.87     681.00
 29.97     599.48
 30.07     541.18
 30.17     623.00
 30.27     641.00
 30.37     654.00
 30.47     595.77
 30.57     587.99
 30.67     642.00
 30.77     566.99
 30.87     683.00
 30.97     667.00
 31.07     656.00
 31.17     673.88
 31.27     671.00
 31.37     625.00
 31.47     619.47
 31.57     642.00
 31.67     618.00
 31.77     630.00
 31.87     601.00
 31.97     580.00
 32.07     545.00
 32.17     602.00
 32.27     617.30
 32.37     573.00
 32.47     575.00
 32.57     590.90
 32.67     568.91
 32.77     620.00
 32.87     572.00
 32.97     559.00
 33.07     556.00
 33.17     559.00
 33.27     595.00
 33.37     595.00
 33.47     615.29
 33.57     663.00
 33.67     615.00
 33.77     692.65
 33.87     816.47
 33.97     864.00
 34.07     932.00
 34.17    1079.00
 34.27    1051.48
 34.37     921.00
 34.47     827.00
 34.57     679.00
 34.67     653.85
 34.77     627.67
 34.87     604.39
 34.97     553.00
 35.07     564.00
 35.17     598.00
 35.27     552.36
 35.37     509.00
 35.47     570.00
 35.57     553.00
 35.67     539.00
 35.77     520.00
 35.87     468.00
 35.97     563.00
 36.07     531.00
 36.17     564.73
 36.27     566.02
 36.37     564.33
 36.47     483.00
 36.57     508.00
 36.67     555.00
 36.77     563.39
 36.87     485.00
 36.97     542.00
 37.07     528.00
 37.17     474.00
 37.27     497.00
 37.37     521.00
 37.47     527.00
 37.57     465.00
 37.67     553.00
 37.77     565.00
 37.87     558.31
 37.97     514.13
 38.07     514.00
 38.17     556.00
 38.27     515.00
 38.37     499.00
 38.47     532.01
 38.57     508.62
 38.67     520.00
 38.77     471.00
 38.87     503.00
 38.97     518.00
 39.07     490.00
 39.17     532.00
 39.27     504.00
 39.37     510.23
 39.47     476.59
 39.57     527.00
 39.67     524.00
 39.77     512.00
 39.87     476.46
 39.97     473.00
 40.07     526.00
 40.17     524.00
 40.27     525.00
 40.37     512.69
 40.47     572.55
 40.57     549.00
 40.67     518.00
 40.77     504.00
 40.87     498.00
 40.97     515.00
 41.07     536.00
 41.17     503.84
 41.27     526.00
 41.37     487.00
 41.47     563.64
 41.57     453.00
 41.67     543.37
 41.77     513.00
 41.87     536.00
 41.97     511.00
 42.07     530.00
 42.17     554.90
 42.27     531.54
 42.37     546.00
 42.47     535.00
 42.57     564.00
 42.67     622.00
 42.77     546.00
 42.87     687.74
 42.97     595.00
 43.07     545.00
 43.17     572.00
 43.27     585.00
 43.37     572.00
 43.47     500.00
 43.57     538.33
 43.67     482.00
 43.77     499.00
 43.87     499.98
 43.97     501.00
 44.07     511.00
 44.17     539.00
 44.27     523.00
 44.37     512.01
 44.47     557.36
 44.57     534.00
 44.67     468.45
 44.77     525.00
 44.87     488.36
 44.97     477.39
 45.07     530.00
 45.17     545.75
 45.27     494.47
 45.37     561.16
 45.47     535.00
 45.57     471.00
 45.67     508.00
 45.77     515.47
 45.87     535.71
 45.97     510.57
 46.07     517.00
 46.17     500.00
 46.27     495.69
 46.37     484.49
 46.47     512.00
 46.57     510.00
 46.67     490.16
 46.77     559.00
 46.87     497.00
 46.97     542.07
 47.07     508.00
 47.17     517.00
 47.27     502.00
 47.37     515.98
 47.47     534.00
 47.57     496.00
 47.67     504.70
 47.77     570.00
 47.87     620.00
 47.97     618.98
 48.07     615.00
 48.17     615.00
 48.27     603.78
 48.37     582.07
 48.47     561.00
 48.57     558.00
 48.67     599.00
 48.77     573.00
 48.87     532.00
 48.97     553.28
 49.07     502.00
 49.17     551.00
 49.27     533.00
 49.37     537.64
 49.47     590.00
 49.57     671.90
 49.67     687.04
 49.77     778.00
 49.87     968.50
 49.97    1203.47
 50.07    1584.00
 50.17    1869.03
 50.27    2232.00
 50.37    2228.40
 50.47    2346.73
 50.57    2002.00
 50.67    1629.00
 50.77    1281.00
 50.87    1022.00
 50.97     944.51
 51.07     736.00
 51.17     704.00
 51.27     668.00
 51.37     573.00
 51.47     599.00
 51.57     619.00
 51.67     596.41
 51.77     576.00
 51.87     592.42
 51.97     582.00
 52.07     631.00
 52.17     582.34
 52.27     532.63
 52.37     504.72
 52.47     613.00
 52.57     585.00
 52.67     583.00
 52.77     580.00
 52.87     556.83
 52.97     663.00
 53.07     669.81
 53.17     738.54
 53.27     756.00
 53.37     912.33
 53.47     976.00
 53.57    1061.79
 53.67    1107.56
 53.77    1282.09
 53.87    1214.28
 53.97    1043.54
 54.07     909.38
 54.17     904.46
 54.27     787.00
 54.37     706.00
 54.47     690.00
 54.57     613.00
 54.67     645.76
 54.77     576.00
 54.87     587.00
 54.97     612.00
 55.07     583.99
 55.17     593.00
 55.27     591.00
 55.37     608.00
 55.47     579.64
 55.57     584.00
 55.67     630.00
 55.77     593.00
 55.87     647.47
 55.97     626.41
 56.07     700.00
 56.17     746.00
 56.27     786.00
 56.37     916.71
 56.47    1013.00
 56.57    1208.00
 56.67    1436.00
 56.77    1841.66
 56.87    2128.66
 56.97    2454.00
 57.07    2615.00
 57.17    2506.00
 57.27    2277.00
 57.37    1991.61
 57.47    1642.00
 57.57    1506.48
 57.67    1147.00
 57.77     964.99
 57.87     825.00
 57.97     832.00
 58.07     743.17
 58.17     660.11
 58.27     748.00
 58.37     705.00
 58.47     770.00
 58.57     815.11
 58.67     938.00
 58.77     879.55
 58.87    1007.21
 58.97    1160.50
 59.07    1180.00
 59.17    1257.00
 59.27    1304.00
 59.37    1226.17
 59.47    1220.00
 59.57    1216.00
 59.67    1200.00
 59.77    1108.19
 59.87    1192.00
 59.97    1217.04
 60.07    1303.00
 60.17    1423.00
 60.27    1529.00
 60.37    1585.70
 60.47    1448.39
 60.57    1488.00
 60.67    1432.00
 60.77    1303.94
 60.87    1163.47
 60.97    1023.00
 61.07     886.00
 61.17     779.00
 61.27     723.00
 61.37     670.00
 61.47     732.00
 61.57     755.00
 61.67     748.00
 61.77     826.32
 61.87     878.42
 61.97     996.00
 62.07    1062.00
 62.17    1158.85
 62.27    1346.16
 62.37    1349.00
 62.47    1288.00
 62.57    1269.12
 62.67    1184.00
 62.77    1074.00
 62.87     893.00
 62.97     775.00
 63.07     745.00
 63.17     738.42
 63.27     623.17
 63.37     624.00
 63.47     611.92
 63.57     637.45
 63.67     643.67
 63.77     585.00
 63.87     622.00
 63.97     651.00
 64.07     582.01
 64.17     701.58
 64.27     739.67
 64.37     736.00
 64.47     889.00
 64.57     876.00
 64.67     956.00
 64.77    1005.00
 64.87    1034.00
 64.97    1093.95
 65.07    1006.74
 65.17     952.00
 65.27     898.97
 65.37     913.47
 65.47     806.87
 65.57     810.98
 65.67     741.51
 65.77     689.33
 65.87     619.00
 65.97     642.00
 66.07     612.00
 66.17     589.97
 66.27     598.00
 66.37     592.00
 66.47     574.00
 66.57     582.00
 66.67     606.00
 66.77     565.00
 66.87     615.00
 66.97     646.00
 67.07     623.00
 67.17     684.81
 67.27     715.00
 67.37     704.00
 67.47     895.65
 67.57    1006.74
 67.67    1057.61
 67.77    1215.00
 67.87    1529.70
 67.97    1668.29
 68.07    1979.00
 68.17    2178.82
 68.27    2313.00
 68.37    2269.55
 68.47    2265.00
 68.57    2126.71
 68.67    1993.00
 68.77    1777.00
 68.87    1576.00
 68.97    1272.00
 69.07    1135.86
 69.17     904.19
 69.27     866.00
 69.37     794.00
 69.47     709.55
 69.57     665.00
 69.67     621.38
 69.77     636.00
 69.87     631.00
 69.97     628.00
 70.07     593.00
 70.17     584.00
 70.27     578.00
 70.37     642.00
 70.47     609.00
 70.57     597.00
 70.67     635.31
 70.77     601.00
 70.87     600.00
 70.97     637.00
 71.07     610.00
 71.17     659.11
 71.27     697.53
 71.37     736.00
 71.47     849.09
 71.57    1000.52
 71.67    1004.00
 71.77    1169.00
 71.87    1282.00
 71.97    1483.00
 72.07    1654.00
 72.17    1784.00
 72.27    1798.35
 72.37    1775.63
 72.47    1778.00
 72.57    1730.00
 72.67    1574.00
 72.77    1343.18
 72.87    1295.00
 72.97    1026.79
 73.07    1008.00
 73.17     826.77
 73.27     755.00
 73.37     808.00
 73.47     712.00
 73.57     689.00
 73.67     659.00
 73.77     696.00
 73.87     642.54
 73.97     607.00
 74.07     614.00
 74.17     631.00
 74.27     600.62
 74.37     536.29
 74.47     518.13
 74.57     549.99
 74.67     640.00
 74.77     623.00
 74.87     642.00
 74.97     657.00
 75.07     523.85
 75.17     605.60
 75.27     608.46
 75.37     672.00
 75.47     579.00
 75.57     644.00
 75.67     578.00
 75.77     609.00
 75.87     580.00
 75.97     549.66
 76.07     606.00
 76.17     606.57
 76.27     566.92
 76.37     634.00
 76.47     678.36
 76.57     693.00
 76.67     699.10
 76.77     715.00
 76.87     719.00
 76.97     661.65
 77.07     669.57
 77.17     648.48
 77.27     627.53
 77.37     656.00
 77.47     641.82
 77.57     545.83
 77.67     599.05
 77.77     541.00
 77.87     550.00
 77.97     534.00
 78.07     535.00
 78.17     512.00
 78.27     562.00
 78.37     583.78
 78.47     472.78
 78.57     499.00
 78.67     543.00
 78.77     526.88
 78.87     516.00
 78.97     547.00
 79.07     488.00
 79.17     509.00
 79.27     548.00
 79.37     507.00
 79.47     507.00
 79.57     504.96
 79.67     570.84
 79.77     492.06
 79.87     540.70
 79.97     556.00
 80.07     573.00
 80.17     593.70
 80.27     517.00
 80.37     546.00
 80.47     569.00
 80.57     545.00
 80.67     550.11
 80.77     558.60
 80.87     653.00
 80.97     582.00
 81.07     629.00
 81.17     646.00
 81.27     754.03
 81.37     669.00
 81.47     684.84
 81.57     737.00
 81.67     715.88
 81.77     734.00
 81.87     730.00
 81.97     799.00
 82.07     736.00
 82.17     775.00
 82.27     667.00
 82.37     704.00
 82.47     738.54
 82.57     694.00
 82.67     691.41
 82.77     632.00
 82.87     625.00
 82.97     602.77
 83.07     577.25
 83.17     572.00
 83.27     570.00
 83.37     571.84
 83.47     600.52
 83.57     569.00
 83.67     540.86
 83.77     570.00
 83.87     550.00
 83.97     572.73
 84.07     592.00
 84.17     634.07
 84.27     586.00
 84.37     594.29
 84.47     568.00
 84.57     583.47
 84.67     560.00
 84.77     513.04
 84.87     542.25
 84.97     608.00
 85.07     556.00
 85.17     525.00
 85.27     555.34
 85.37     557.74
 85.47     536.00
 85.57     568.08
 85.67     524.00
 85.77     549.00
 85.87     476.98
 85.97     529.00
 86.07     518.00
 86.17     526.00
 86.27     518.00
 86.37     527.00
 86.47     564.00
 86.57     522.00
 86.67     542.00
 86.77     547.00
 86.87     558.00
 86.97     539.00
 87.07     524.36
 87.17     550.95
 87.27     609.00
 87.37     649.00
 87.47     590.00
 87.57     610.00
 87.67     629.32
 87.77     662.00
 87.87     687.30
 87.97     654.00
 88.07     599.93
 88.17     668.00
 88.27     601.95
 88.37     606.00
 88.47     607.87
 88.57     616.00
 88.67     601.00
 88.77     527.43
 88.87     542.00
 88.97     570.00
 89.07     566.00
 89.17     531.98
 89.27     612.00
 89.37     612.00
 89.47     639.52
 89.57     616.09
 89.67     624.73
 89.77     593.00
 89.87     571.00
 89.97     543.51
 90.07     549.40
 90.17     575.00
 90.27     527.00
 90.37     622.26
 90.47     593.54
 90.57     588.81
 90.67     549.00
 90.77     525.00
 90.87     552.39
 90.97     544.00
 91.07     573.41
 91.17     488.00
 91.27     479.90
 91.37     532.17
 91.47     500.04
 91.57     545.00
 91.67     494.00
 91.77     524.00
 91.87     553.00
 91.97     529.00
 92.07     549.00
 92.17     532.00
 92.27     579.00
 92.37     551.00
 92.47     567.00
 92.57     556.00
 92.67     567.00
 92.77     608.00
 92.87     591.00
 92.97     620.00
 93.07     666.00
 93.17     699.00
 93.27     666.00
 93.37     718.00
 93.47     676.00
 93.57     792.00
 93.67     820.00
 93.77     734.72
 93.87     826.15
 93.97     742.14
 94.07     867.70
 94.17     790.00
 94.27     779.49
 94.37     838.00
 94.47     827.00
 94.57     892.00
 94.67     807.16
 94.77     844.00
 94.87     914.00
 94.97     851.61
 95.07     935.00
 95.17     864.00
 95.27     923.00
 95.37     915.00
 95.47     874.00
 95.57     780.00
 95.67     804.00
 95.77     888.00
 95.87     743.00
 95.97     727.94
 96.07     735.00
 96.17     767.17
 96.27     700.00
 96.37     736.00
 96.47     725.23
 96.57     749.00
 96.67     764.00
 96.77     789.14
 96.87     766.00
 96.97     961.42
 97.07     905.00
 97.17     953.00
 97.27    1090.00
 97.37    1184.91
 97.47    1275.00
 97.57    1302.61
 97.67    1349.24
 97.77    1397.00
 97.87    1379.00
 97.97    1349.03
 98.07    1451.00
 98.17    1320.72
 98.27    1382.00
 98.37    1356.00
 98.47    1332.00
 98.57    1215.22
 98.67    1211.64
 98.77    1126.00
 98.87    1031.00
 98.97     962.84
 99.07    1050.00
 99.17     883.00
 99.27     879.00
 99.37     898.00
 99.47     918.94
 99.57     886.00
 99.67     960.00
 99.77     938.39
 99.87    1062.00
 99.97    1066.70
100.07    1157.00
100.17    1213.77
100.27    1396.78
100.37    1421.31
100.47    1662.00
100.57    1679.00
100.67    1708.00
100.77    1823.00
100.87    1900.24
100.97    1882.90
101.07    1923.49
101.17    1878.00
101.27    2016.37
101.37    1962.53
101.47    1986.00
101.57    1904.00
101.67    1893.20
101.77    1802.00
101.87    1646.84
101.97    1602.00
102.07    1538.00
102.17    1475.00
102.27    1351.00
102.37    1381.01
102.47    1304.00
102.57    1278.36
102.67    1235.85
102.77    1212.00
102.87    1192.88
102.97    1111.00
103.07    1094.50
103.17    1066.92
103.27    1053.00
103.37    1030.00
103.47    1067.90
103.57     925.02
103.67     872.49
103.77     897.00
103.87     847.00
103.97     862.00
104.07     756.00
104.17     771.00
104.27     725.00
104.37     679.00
104.47     694.00
104.57     640.00
104.67     554.14
104.77     582.56
104.87     594.00
104.97     581.00
105.07     565.00
105.17     598.00
105.27     579.00
105.37     515.38
105.47     514.00
105.57     567.00
105.67     561.00
105.77     536.00
105.87     522.00
105.97     606.37
106.07     500.87
106.17     549.01
106.27     580.00
106.37     584.38
106.47     593.00
106.57     531.68
106.67     579.00
106.77     632.00
106.87     619.00
106.97     668.21
107.07     610.00
107.17     685.00
107.27     701.17
107.37     739.00
107.47     685.00
107.57     658.00
107.67     733.69
107.77     695.84
107.87     660.18
107.97     664.45
108.07     704.00
108.17     686.00
108.27     749.12
108.37     652.83
108.47     750.60
108.57     696.14
108.67     730.03
108.77     756.74
108.87     686.00
108.97     706.50
109.07     745.37
109.17     707.00
109.27     701.00
109.37     712.00
109.47     675.00
109.57     750.92
109.67     743.00
109.77     654.00
109.87     733.28
109.97     706.11
110.07     720.42
110.17     691.00
110.27     627.00
110.37     619.00
110.47     654.75
110.57     618.00
110.67     674.00
110.77     605.00
110.87     599.03
110.97     587.00
111.07     635.00
111.17     573.00
111.27     577.00
111.37     571.62
111.47     599.59
111.57     560.00
111.67     537.31
111.77     557.00
111.87     576.00
111.97     586.00
112.07     563.00
112.17     522.38
112.27     500.00
112.37     528.00
112.47     575.65
112.57     583.00
112.67     504.85
112.77     554.00
112.87     600.00
112.97     582.00
113.07     604.00
113.17     602.84
113.27     644.00
113.37     618.00
113.47     540.35
113.57     619.00
113.67     652.08
113.77     625.00
113.87     681.00
113.97     649.93
114.07     648.00
114.17     702.00
114.27     742.00
114.37     770.00
114.47     766.91
114.57     779.00
114.67     937.00
114.77    1017.20
114.87     980.31
114.97    1176.00
115.07    1306.39
115.17    1446.00
115.27    1499.04
115.37    1677.86
115.47    2032.83
115.57    2171.57
115.67    2564.00
115.77    2739.05
115.87    3117.00
115.97    3542.00
116.07    3770.00
116.17    4034.00
116.27    4524.00
116.37    4982.00
116.47    5008.00
116.57    5514.98
116.67    5980.00
116.77    6106.17
116.87    6513.00
116.97    6611.72
117.07    6742.00
117.17    7100.46
117.27    6951.00
117.37    6919.00
117.47    6753.00
117.57    6665.67
117.67    6175.00
117.77    5966.45
117.87    5486.00
117.97    5585.04
118.07    4947.00
118.17    4679.00
118.27    4332.00
118.37    4036.00
118.47    3679.00
118.57    3513.00
118.67    3040.00
118.77    2757.83
118.87    2533.15
118.97    2331.94
119.07    1964.00
119.17    1806.85
119.27    1622.21
119.37    1459.00
119.47    1369.00
119.57    1212.00
119.67    1211.38
119.77    1087.00
119.87     992.00
119.97     940.00
120.07     872.00
120.17     812.00
120.27     834.00
120.37     695.00
120.47     767.62
120.57     673.00
120.67     628.80
120.77     617.75
120.87     640.00
120.97     671.44
121.07     662.81
121.17     654.48
121.27     574.00
121.37     592.00
121.47     605.00
121.57     574.00
121.67     587.10
121.77     589.12
121.87     590.00
121.97     649.78
122.07     599.52
122.17     570.00
122.27     657.01
122.37     572.37
122.47     672.91
122.57     575.00
122.67     567.63
122.77     622.38
122.87     607.00
122.97     633.00
123.07     621.00
123.17     693.00
123.27     700.00
123.37     605.35
123.47     649.00
123.57     599.00
123.67     665.58
123.77     578.42
123.87     632.00
123.97     652.00
124.07     585.46
124.17     623.00
124.27     677.79
124.37     654.00
124.47     665.00
124.57     599.00
124.67     590.86
124.77     633.00
124.87     652.00
124.97     627.00
