  9.97     541.00
 10.07     584.00
 10.17     555.00
 10.27     585.00
 10.37     565.00
 10.47     608.00
 10.57     536.74
 10.67     523.17
 10.77     529.38
 10.87     580.00
 10.97     569.79
 11.07     600.00
 11.17     588.00
 11.27     607.00
 11.37     531.00
 11.47     598.00
 11.57     564.14
 11.67     620.00
 11.77     634.12
 11.87     634.13
 11.97     620.97
 12.07     708.00
 12.17     693.00
 12.27     652.00
 12.37     685.00
 12.47     658.24
 12.57     600.00
 12.67     600.22
 12.77     593.00
 12.87     583.00
 12.97     543.00
 13.07     578.00
 13.17     616.78
 13.27     547.00
 13.37     527.00
 13.47     574.00
 13.57     553.18
 13.67     541.27
 13.77     559.00
 13.87     538.96
 13.97     552.00
 14.07     544.00
 14.17     557.00
 14.27     530.00
 14.37     606.62
 14.47     594.00
 14.57     576.00
 14.67     535.10
 14.77     558.40
 14.87     574.57
 14.97     562.00
 15.07     601.42
 15.17     567.00
 15.27     529.00
 15.37     545.00
 15.47     542.72
 15.57     583.00
 15.67     534.82
 15.77     520.00
 15.87     563.00
 15.97     611.67
 16.07     549.00
 16.17     612.00
 16.27     533.39
 16.37     552.00
 16.47     582.00
 16.57     502.00
 16.67     562.22
 16.77     541.55
 16.87     570.00
 16.97     612.04
 17.07     577.64
 17.17     523.00
 17.27     528.00
 17.37     521.71
 17.47     570.67
 17.57     535.76
 17.67     588.00
 17.77     579.67
 17.87     527.71
 17.97     579.00
 18.07     535.00
 18.17     583.00
 18.27     569.00
 18.37     576.34
 18.47     561.61
 18.57     512.73
 18.67     523.00
 18.77     510.05
 18.87     543.19
 18.97     553.00
 19.07     560.54
 19.17     552.00
 19.27     542.00
 19.37     526.00
 19.47     579.00
 19.57     562.00
 19.67     535.00
 19.77     562.00
 19.87     579.70
 19.97     563.00
 20.07     520.35
 20.17     597.00
 20.27     568.00
 20.37     548.00
 20.47     593.65
 20.57     578.00
 20.67     518.00
 20.77     525.00
 20.87     556.00
 20.97     556.00
 21.07     546.00
 21.17     551.03
 21.27     538.00
 21.37     553.00
 21.47     598.30
 21.57     561.28
 21.67     539.00
 21.77     569.00
 21.87     565.30
 21.97     555.00
 22.07     522.38
 22.17     523.00
 22.27     562.00
 22.37     568.00
 22.47     531.00
 22.57     574.00
 22.67     549.00
 22.77     554.66
 22.87     502.74
 22.97     532.98
 23.07     546.00
 23.17     554.00
 23.27     567.97
 23.37     521.74
 23.47     491.00
 23.57     523.91
 23.67     520.42
 23.77     578.00
 23.87     588.38
 23.97     560.61
 24.07     550.00
 24.17     549.00
 24.27     549.00
 24.37     570.00
 24.47     539.00
 24.57     573.00
 24.67     663.00
 24.77     596.00
 24.87     643.00
 24.97     582.00
 25.07     569.00
 25.17     561.00
 25.27     599.00
 25.37     576.00
 25.47     503.72
 25.57     585.37
 25.67     538.04
 25.77     584.74
 25.87     568.27
 25.97     553.49
 26.07     577.23
 26.17     561.00
 26.27     565.00
 26.37     544.00
 26.47     543.00
 26.57     586.00
 26.67     590.00
 26.77     505.07
 26.87     574.30
 26.97     573.00
 27.07     537.68
 27.17     587.99
 27.27     543.00
 27.37     517.00
 27.47     560.40
 27.57     589.00
 27.67     572.00
 27.77     581.00
 27.87     565.00
 27.97     699.00
 28.07     727.08
 28.17     919.00
 28.27     969.00
 28.37     929.00
 28.47     830.94
 28.57     735.00
 28.67     719.13
 28.77     783.00
 28.87     758.83
 28.97     840.00
 29.07     784.00
 29.17     752.96
 29.27     721.00
 29.37     596.59
 29.47     615.00
 29.57     659.00
 29.67     609.00
 29.77     581.00
 29.87     599.67
 29.97     596.00
 30.07     599.00
 30.17     552.00
 30.27     574.00
 30.37     563.00
 30.47     553.53
 30.57     578.00
 30.67     572.00
 30.77     597.00
 30.87     619.00
 30.97     618.00
 31.07     631.00
 31.17     554.00
 31.27     519.00
 31.37     565.00
 31.47     514.00
 31.57     522.68
 31.67     548.00
 31.77     552.35
 31.87     482.41
 31.97     532.00
 32.07     556.00
 32.17     533.00
 32.27     517.00
 32.37     549.00
 32.47     495.83
 32.57     542.00
 32.67     574.00
 32.77     547.00
 32.87     532.21
 32.97     535.28
 33.07     515.00
 33.17     559.90
 33.27     552.00
 33.37     514.00
 33.47     544.93
 33.57     591.00
 33.67     616.00
 33.77     724.00
 33.87     847.00
 33.97    1021.00
 34.07    1078.26
 34.17    1072.49
 34.27     919.00
 34.37     780.71
 34.47     648.00
 34.57     608.00
 34.67     539.00
 34.77     523.00
 34.87     577.00
 34.97     584.00
 35.07     561.00
 35.17     513.00
 35.27     503.00
 35.37     481.83
 35.47     546.05
 35.57     530.00
 35.67     555.24
 35.77     474.00
 35.87     530.02
 35.97     480.65
 36.07     502.00
 36.17     525.00
 36.27     486.00
 36.37     546.29
 36.47     506.00
 36.57     521.00
 36.67     505.04
 36.77     522.00
 36.87     562.00
 36.97     488.47
 37.07     524.97
 37.17     517.66
 37.27     550.00
 37.37     550.40
 37.47     467.00
 37.57     526.00
 37.67     530.45
 37.77     548.64
 37.87     481.12
 37.97     543.00
 38.07     530.00
 38.17     498.00
 38.27     509.00
 38.37     508.00
 38.47     530.37
 38.57     494.00
 38.67     524.04
 38.77     480.00
 38.87     518.00
 38.97     493.00
 39.07     489.00
 39.17     515.00
 39.27     516.16
 39.37     501.00
 39.47     472.00
 39.57     526.00
 39.67     526.00
 39.77     493.00
 39.87     484.00
 39.97     566.00
 40.07     492.00
 40.17     535.77
 40.27     508.00
 40.37     533.16
 40.47     508.66
 40.57     481.00
 40.67     510.00
 40.77     522.00
 40.87     516.00
 40.97     492.56
 41.07     510.98
 41.17     536.40
 41.27     502.00
 41.37     537.92
 41.47     534.00
 41.57     490.98
 41.67     550.82
 41.77     536.84
 41.87     517.00
 41.97     524.68
 42.07     505.00
 42.17     500.47
 42.27     525.87
 42.37     520.00
 42.47     534.20
 42.57     578.43
 42.67     566.00
 42.77     646.62
 42.87     541.00
 42.97     625.49
 43.07     522.01
 43.17     495.00
 43.27     492.00
 43.37     532.42
 43.47     528.00
 43.57     525.00
 43.67     506.52
 43.77     492.00
 43.87     502.00
 43.97     516.00
 44.07     535.00
 44.17     537.00
 44.27     471.88
 44.37     474.82
 44.47     519.21
 44.57     495.90
 44.67     510.00
 44.77     494.75
 44.87     454.00
 44.97     498.00
 45.07     534.00
 45.17     516.00
 45.27     513.00
 45.37     528.00
 45.47     465.45
 45.57     546.75
 45.67     496.45
 45.77     507.52
 45.87     469.00
 45.97     489.77
 46.07     526.17
 46.17     551.99
 46.27     488.35
 46.37     540.00
 46.47     463.00
 46.57     490.00
 46.67     524.45
 46.77     488.51
 46.87     509.00
 46.97     500.00
 47.07     557.00
 47.17     470.13
 47.27     536.27
 47.37     528.00
 47.47     528.00
 47.57     532.00
 47.67     534.24
 47.77     532.05
 47.87     596.00
 47.97     608.00
 48.07     581.00
 48.17     610.03
 48.27     571.00
 48.37     568.00
 48.47     513.00
 48.57     562.00
 48.67     526.00
 48.77     503.09
 48.87     526.32
 48.97     558.13
 49.07     545.00
 49.17     558.00
 49.27     613.00
 49.37     631.00
 49.47     788.00
 49.57     785.00
 49.67     921.00
 49.77    1033.25
 49.87    1409.00
 49.97    1819.00
 50.07    2134.00
 50.17    2507.00
 50.27    2596.00
 50.37    2241.00
 50.47    2009.00
 50.57    1600.00
 50.67    1132.00
 50.77     850.00
 50.87     730.39
 50.97     634.00
 51.07     653.00
 51.17     568.35
 51.27     645.00
 51.37     613.00
 51.47     589.00
 51.57     571.88
 51.67     527.00
 51.77     563.35
 51.87     557.00
 51.97     529.00
 52.07     519.64
 52.17     577.00
 52.27     545.00
 52.37     569.00
 52.47     568.00
 52.57     539.80
 52.67     571.83
 52.77     588.00
 52.87     619.00
 52.97     702.21
 53.07     742.84
 53.17     905.00
 53.27    1018.00
 53.37    1115.00
 53.47    1201.19
 53.57    1183.00
 53.67    1069.00
 53.77    1042.13
 53.87     897.00
 53.97     811.17
 54.07     674.24
 54.17     627.65
 54.27     593.00
 54.37     568.00
 54.47     563.00
 54.57     579.00
 54.67     507.10
 54.77     539.00
 54.87     612.00
 54.97     500.35
 55.07     552.00
 55.17     574.00
 55.27     568.91
 55.37     606.00
 55.47     559.65
 55.57     532.02
 55.67     530.00
 55.77     537.00
 55.87     610.00
 55.97     637.00
 56.07     630.00
 56.17     708.00
 56.27     838.00
 56.37    1006.00
 56.47    1327.76
 56.57    1714.00
 56.67    2019.00
 56.77    2513.03
 56.87    2732.76
 56.97    2596.00
 57.07    2350.87
 57.17    2199.13
 57.27    1716.35
 57.37    1429.00
 57.47    1074.00
 57.57     892.00
 57.67     713.61
 57.77     709.18
 57.87     711.00
 57.97     651.99
 58.07     666.00
 58.17     751.93
 58.27     707.66
 58.37     756.00
 58.47     932.00
 58.57    1130.61
 58.67    1267.33
 58.77    1365.00
 58.87    1534.00
 58.97    1595.00
 59.07    1669.00
 59.17    1639.00
 59.27    1496.00
 59.37    1444.50
 59.47    1208.99
 59.57    1152.51
 59.67    1145.00
 59.77    1131.00
 59.87    1181.00
 59.97    1310.55
 60.07    1441.00
 60.17    1537.22
 60.27    1574.00
 60.37    1485.89
 60.47    1461.00
 60.57    1251.02
 60.67    1116.00
 60.77     973.06
 60.87     830.00
 60.97     747.00
 61.07     679.00
 61.17     623.76
 61.27     616.00
 61.37     618.00
 61.47     633.78
 61.57     700.00
 61.67     762.00
 61.77     902.00
 61.87    1068.00
 61.97    1211.00
 62.07    1296.00
 62.17    1369.00
 62.27    1381.00
 62.37    1293.00
 62.47    1227.00
 62.57    1077.00
 62.67     969.89
 62.77     810.00
 62.87     745.33
 62.97     704.62
 63.07     576.00
 63.17     562.00
 63.27     612.00
 63.37     568.00
 63.47     538.00
 63.57     581.00
 63.67     601.00
 63.77     581.00
 63.87     626.32
 63.97     683.00
 64.07     673.00
 64.17     801.00
 64.27     838.00
 64.37     843.41
 64.47     912.17
 64.57    1023.00
 64.67    1009.00
 64.77    1045.98
 64.87     944.00
 64.97     931.14
 65.07     837.00
 65.17     822.00
 65.27     760.00
 65.37     717.00
 65.47     647.92
 65.57     589.00
 65.67     619.10
 65.77     620.00
 65.87     574.00
 65.97     574.00
 66.07     599.29
 66.17     542.04
 66.27     568.88
 66.37     554.00
 66.47     547.01
 66.57     548.00
 66.67     553.00
 66.77     548.00
 66.87     550.72
 66.97     612.00
 67.07     619.00
 67.17     704.91
 67.27     740.00
 67.37     839.00
 67.47     998.47
 67.57    1183.27
 67.67    1471.08
 67.77    1695.00
 67.87    1942.96
 67.97    2332.67
 68.07    2378.83
 68.17    2451.00
 68.27    2272.00
 68.37    2202.98
 68.47    1990.00
 68.57    1583.11
 68.67    1420.00
 68.77    1090.55
 68.87     884.00
 68.97     832.00
 69.07     721.00
 69.17     621.32
 69.27     652.00
 69.37     566.00
 69.47     643.00
 69.57     590.00
 69.67     638.00
 69.77     578.00
 69.87     557.00
 69.97     569.00
 70.07     594.82
 70.17     537.00
 70.27     562.00
 70.37     584.00
 70.47     608.00
 70.57     567.05
 70.67     579.60
 70.77     611.62
 70.87     597.12
 70.97     624.00
 71.07     659.31
 71.17     733.00
 71.27     783.00
 71.37     912.73
 71.47     998.81
 71.57    1230.59
 71.67    1342.00
 71.77    1501.17
 71.87    1751.00
 71.97    1889.00
 72.07    1943.00
 72.17    1976.00
 72.27    1837.00
 72.37    1750.50
 72.47    1590.00
 72.57    1439.00
 72.67    1266.00
 72.77    1152.00
 72.87    1120.77
 72.97    1038.47
 73.07     879.40
 73.17     918.28
 73.27     804.04
 73.37     706.34
 73.47     664.00
 73.57     674.18
 73.67     632.00
 73.77     592.00
 73.87     585.00
 73.97     568.51
 74.07     556.00
 74.17     637.00
 74.27     647.00
 74.37     638.00
 74.47     588.84
 74.57     647.00
 74.67     667.00
 74.77     647.00
 74.87     570.34
 74.97     541.71
 75.07     650.00
 75.17     570.22
 75.27     567.00
 75.37     577.00
 75.47     510.65
 75.57     551.00
 75.67     592.00
 75.77     585.85
 75.87     591.00
 75.97     566.00
 76.07     652.60
 76.17     680.00
 76.27     713.00
 76.37     640.43
 76.47     692.00
 76.57     686.00
 76.67     733.00
 76.77     634.00
 76.87     643.00
 76.97     648.75
 77.07     616.00
 77.17     566.00
 77.27     596.82
 77.37     540.00
 77.47     528.38
 77.57     522.00
 77.67     518.00
 77.77     569.20
 77.87     552.00
 77.97     549.00
 78.07     541.00
 78.17     491.00
 78.27     498.00
 78.37     524.00
 78.47     535.23
 78.57     531.00
 78.67     569.12
 78.77     551.86
 78.87     554.00
 78.97     514.00
 79.07     547.70
 79.17     534.00
 79.27     524.00
 79.37     539.00
 79.47     493.26
 79.57     488.63
 79.67     535.00
 79.77     508.56
 79.87     531.55
 79.97     541.00
 80.07     556.54
 80.17     557.00
 80.27     551.00
 80.37     579.00
 80.47     570.00
 80.57     626.85
 80.67     605.92
 80.77     652.00
 80.87     678.60
 80.97     707.00
 81.07     666.00
 81.17     689.41
 81.27     733.53
 81.37     717.94
 81.47     759.00
 81.57     724.00
 81.67     685.81
 81.77     718.00
 81.87     678.00
 81.97     736.00
 82.07     692.00
 82.17     666.19
 82.27     622.00
 82.37     637.00
 82.47     628.00
 82.57     631.73
 82.67     577.00
 82.77     555.00
 82.87     590.16
 82.97     515.00
 83.07     552.00
 83.17     523.18
 83.27     543.05
 83.37     535.37
 83.47     538.59
 83.57     571.00
 83.67     534.78
 83.77     568.00
 83.87     559.00
 83.97     598.00
 84.07     560.00
 84.17     622.44
 84.27     573.00
 84.37     612.64
 84.47     557.00
 84.57     550.03
 84.67     555.00
 84.77     565.95
 84.87     493.77
 84.97     538.00
 85.07     509.00
 85.17     559.80
 85.27     492.77
 85.37     543.00
 85.47     544.00
 85.57     487.00
 85.67     556.51
 85.77     506.00
 85.87     518.00
 85.97     564.82
 86.07     575.36
 86.17     520.00
 86.27     491.00
 86.37     543.00
 86.47     558.16
 86.57     571.00
 86.67     509.34
 86.77     604.00
 86.87     570.30
 86.97     642.00
 87.07     606.00
 87.17     618.00
 87.27     657.00
 87.37     697.00
 87.47     636.49
 87.57     616.00
 87.67     668.00
 87.77     618.93
 87.87     613.00
 87.97     572.22
 88.07     641.01
 88.17     574.00
 88.27     566.00
 88.37     562.00
 88.47     542.00
 88.57     600.95
 88.67     586.17
 88.77     586.53
 88.87     614.26
 88.97     583.00
 89.07     639.00
 89.17     578.99
 89.27     605.10
 89.37     607.00
 89.47     573.00
 89.57     616.00
 89.67     586.00
 89.77     564.00
 89.87     563.00
 89.97     602.81
 90.07     534.40
 90.17     580.97
 90.27     546.00
 90.37     528.00
 90.47     581.08
 90.57     505.00
 90.67     514.00
 90.77     512.00
 90.87     521.00
 90.97     471.00
 91.07     522.00
 91.17     538.38
 91.27     574.01
 91.37     499.00
 91.47     532.00
 91.57     558.00
 91.67     504.83
 91.77     512.00
 91.87     538.83
 91.97     552.00
 92.07     557.50
 92.17     540.00
 92.27     578.01
 92.37     591.00
 92.47     628.02
 92.57     659.60
 92.67     685.00
 92.77     671.00
 92.87     734.00
 92.97     664.22
 93.07     705.01
 93.17     756.00
 93.27     792.00
 93.37     738.00
 93.47     824.34
 93.57     895.00
 93.67     857.36
 93.77     872.00
 93.87     867.74
 93.97     843.00
 94.07     847.00
 94.17     850.00
 94.27     794.40
 94.37     823.00
 94.47     886.88
 94.57     821.93
 94.67     945.00
 94.77     902.00
 94.87     944.00
 94.97     960.00
 95.07     876.92
 95.17     869.37
 95.27     903.00
 95.37     785.00
 95.47     815.00
 95.57     706.65
 95.67     724.00
 95.77     708.00
 95.87     680.00
 95.97     625.11
 96.07     642.00
 96.17     674.00
 96.27     730.26
 96.37     751.00
 96.47     713.00
 96.57     791.00
 96.67     876.00
 96.77     954.00
 96.87     992.27
 96.97    1089.63
 97.07    1184.00
 97.17    1265.98
 97.27    1346.00
 97.37    1367.00
 97.47    1419.26
 97.57    1415.00
 97.67    1414.00
 97.77    1369.00
 97.87    1391.10
 97.97    1345.00
 98.07    1290.97
 98.17    1154.00
 98.27    1106.00
 98.37    1066.59
 98.47     943.00
 98.57     920.00
 98.67     883.00
 98.77     851.00
 98.87     786.65
 98.97     767.00
 99.07     797.00
 99.17     847.00
 99.27     795.13
 99.37     890.00
 99.47     895.16
 99.57    1025.00
 99.67    1119.00
 99.77    1267.00
 99.87    1318.60
 99.97    1483.00
100.07    1640.00
100.17    1689.00
100.27    1686.05
100.37    1856.00
100.47    2091.00
100.57    2058.62
100.67    2040.00
100.77    2070.00
100.87    2148.75
100.97    2064.00
101.07    2064.00
101.17    1879.10
101.27    1958.28
101.37    1823.40
101.47    1633.00
101.57    1604.00
101.67    1458.18
101.77    1419.23
101.87    1362.00
101.97    1255.80
102.07    1207.00
102.17    1224.52
102.27    1192.73
102.37    1167.33
102.47    1076.10
102.57    1112.00
102.67    1044.00
102.77    1116.00
102.87    1004.38
102.97     969.62
103.07     926.00
103.17     855.19
103.27     840.00
103.37     771.38
103.47     754.00
103.57     730.08
103.67     704.00
103.77     630.49
103.87     599.84
103.97     591.58
104.07     607.00
104.17     569.00
104.27     592.00
104.37     603.19
104.47     527.00
104.57     570.00
104.67     574.68
104.77     550.00
104.87     505.32
104.97     518.00
105.07     485.19
105.17     564.00
105.27     505.00
105.37     581.00
105.47     545.39
105.57     503.00
105.67     494.94
105.77     561.00
105.87     567.94
105.97     619.00
106.07     545.00
106.17     558.00
106.27     601.00
106.37     631.69
106.47     570.00
106.57     590.00
106.67     599.00
106.77     625.00
106.87     685.46
106.97     656.00
107.07     700.00
107.17     710.76
107.27     690.00
107.37     691.00
107.47     684.00
107.57     687.00
107.67     686.56
107.77     683.58
107.87     689.49
107.97     727.92
108.07     676.00
108.17     732.97
108.27     632.00
108.37     704.00
108.47     644.00
108.57     716.00
108.67     668.91
108.77     726.00
108.87     671.00
108.97     684.00
109.07     662.00
109.17     638.00
109.27     621.02
109.37     687.00
109.47     633.00
109.57     677.00
109.67     659.00
109.77     571.92
109.87     648.00
109.97     619.00
110.07     621.00
110.17     597.00
110.27     526.45
110.37     578.00
110.47     531.71
110.57     570.00
110.67     521.00
110.77     550.00
110.87     548.00
110.97     560.00
111.07     551.00
111.17     522.00
111.27     536.00
111.37     512.73
111.47     518.13
111.57     539.00
111.67     571.25
111.77     575.14
111.87     505.39
111.97     522.00
112.07     544.48
112.17     549.00
112.27     545.00
112.37     613.00
112.47     586.00
112.57     595.00
112.67     605.00
112.77     587.96
112.87     612.26
112.97     671.00
113.07     744.00
113.17     709.00
113.27     682.00
113.37     697.49
113.47     746.16
113.57     817.69
113.67     795.00
113.77     884.00
113.87     902.00
113.97     956.95
114.07    1029.00
114.17    1098.02
114.27    1121.00
114.37    1260.40
114.47    1327.43
114.57    1459.00
114.67    1514.00
114.77    1776.00
114.87    1841.00
114.97    2090.00
115.07    2218.39
115.17    2525.00
115.27    2760.00
115.37    2982.00
115.47    3231.63
115.57    3519.00
115.67    4002.55
115.77    4393.77
115.87    4521.00
115.97    5064.00
116.07    5320.00
116.17    5790.00
116.27    6196.00
116.37    6393.73
116.47    6668.24
116.57    6976.00
116.67    7011.28
116.77    7210.00
116.87    7011.00
116.97    6969.00
117.07    6628.00
117.17    6517.85
117.27    6026.00
117.37    5801.00
117.47    5270.00
117.57    4903.00
117.67    4523.00
117.77    4246.86
117.87    3720.25
117.97    3595.00
118.07    3160.00
118.17    2768.25
118.27    2610.00
118.37    2138.00
118.47    1979.50
118.57    1684.00
118.67    1546.00
118.77    1362.00
118.87    1228.00
118.97    1044.00
119.07    1053.11
119.17     911.00
119.27     818.72
119.37     792.48
119.47     718.00
119.57     707.99
119.67     731.50
119.77     665.00
119.87     624.00
119.97     590.00
120.07     583.00
120.17     598.85
120.27     610.00
120.37     525.00
120.47     577.24
120.57     544.78
120.67     563.00
120.77     544.00
120.87     611.00
120.97     541.75
121.07     542.00
121.17     573.00
121.27     550.00
121.37     538.00
121.47     622.99
121.57     616.15
121.67     604.00
121.77     595.00
121.87     573.00
121.97     552.43
122.07     566.69
122.17     579.00
122.27     624.59
122.37     639.00
122.47     622.00
122.57     618.00
122.67     610.67
122.77     633.00
122.87     667.31
122.97     673.00
123.07     615.00
123.17     638.00
123.27     643.00
123.37     647.00
123.47     715.00
123.57     617.00
123.67     647.00
123.77     636.78
123.87     656.00
123.97     594.00
124.07     644.00
124.17     567.62
124.27     612.00
124.37     600.35
124.47     584.00
124.57     627.90
124.67     606.00
124.77     545.19
124.87     547.86
124.97     588.00
