  9.97     592.00
 10.07     646.00
 10.17     559.18
 10.27     627.00
 10.37     547.57
 10.47     625.00
 10.57     665.00
 10.67     621.00
 10.77     633.00
 10.87     580.39
 10.97     568.11
 11.07     550.00
 11.17     608.12
 11.27     553.32
 11.37     606.62
 11.47     623.00
 11.57     668.00
 11.67     632.00
 11.77     683.00
 11.87     698.00
 11.97     671.00
 12.07     685.72
 12.17     694.00
 12.27     740.00
 12.37     693.00
 12.47     703.89
 12.57     685.13
 12.67     618.00
 12.77     632.52
 12.87     622.00
 12.97     601.00
 13.07     576.00
 13.17     632.29
 13.27     599.00
 13.37     623.82
 13.47     556.82
 13.57     549.00
 13.67     556.00
 13.77     625.00
 13.87     586.00
 13.97     606.00
 14.07     594.00
 14.17     593.00
 14.27     611.00
 14.37     551.00
 14.47     574.00
 14.57     557.00
 14.67     577.00
 14.77     579.00
 14.87     585.00
 14.97     637.00
 15.07     549.87
 15.17     594.90
 15.27     560.00
 15.37     585.00
 15.47     559.00
 15.57     588.17
 15.67     566.00
 15.77     588.00
 15.87     614.00
 15.97     567.00
 16.07     564.00
 16.17     589.00
 16.27     558.94
 16.37     563.00
 16.47     607.00
 16.57     629.29
 16.67     569.80
 16.77     574.00
 16.87     592.00
 16.97     557.00
 17.07     609.00
 17.17     584.00
 17.27     573.00
 17.37     615.42
 17.47     562.00
 17.57     581.00
 17.67     560.00
 17.77     585.00
 17.87     574.00
 17.97     556.00
 18.07     588.00
 18.17     551.41
 18.27     625.79
 18.37     630.44
 18.47     644.68
 18.57     585.00
 18.67     626.44
 18.77     590.08
 18.87     545.84
 18.97     636.75
 19.07     589.00
 19.17     547.00
 19.27     584.68
 19.37     600.00
 19.47     579.00
 19.57     588.00
 19.67     531.00
 19.77     585.31
 19.87     554.00
 19.97     543.44
 20.07     626.54
 20.17     597.83
 20.27     570.00
 20.37     545.38
 20.47     570.00
 20.57     585.00
 20.67     550.00
 20.77     626.01
 20.87     568.00
 20.97     576.00
 21.07     564.00
 21.17     634.71
 21.27     514.00
 21.37     580.00
 21.47     608.00
 21.57     598.00
 21.67     573.00
 21.77     523.00
 21.87     604.79
 21.97     593.00
 22.07     613.00
 22.17     586.00
 22.27     550.95
 22.37     589.00
 22.47     547.00
 22.57     594.00
 22.67     542.75
 22.77     607.00
 22.87     550.92
 22.97     590.24
 23.07     632.55
 23.17     554.00
 23.27     563.38
 23.37     560.57
 23.47     531.15
 23.57     543.00
 23.67     585.00
 23.77     547.00
 23.87     586.60
 23.97     615.00
 24.07     558.00
 24.17     617.00
 24.27     639.00
 24.37     603.13
 24.47     601.87
 24.57     625.00
 24.67     663.00
 24.77     647.00
 24.87     669.00
 24.97     612.52
 25.07     713.00
 25.17     668.44
 25.27     609.00
 25.37     590.00
 25.47     553.00
 25.57     614.00
 25.67     553.78
 25.77     607.00
 25.87     585.00
 25.97     550.60
 26.07     533.07
 26.17     521.08
 26.27     524.70
 26.37     651.00
 26.47     529.53
 26.57     675.00
 26.67     614.00
 26.77     621.00
 26.87     609.00
 26.97     592.40
 27.07     596.11
 27.17     630.91
 27.27     622.00
 27.37     611.31
 27.47     633.00
 27.57     722.00
 27.67     653.00
 27.77     662.00
 27.87     626.00
 27.97     652.53
 28.07     687.45
 28.17     828.82
 28.27     881.59
 28.37     979.00
 28.47     957.00
 28.57     853.00
 28.67     788.00
 28.77     748.34
 28.87     825.89
 28.97     841.00
 29.07     910.00
 29.17     776.30
 29.27     783.59
 29.37     742.58
 29.47     711.00
 29.57     634.00
 29.67     626.00
 29.77     662.00
 29.87     621.99
 29.97     643.00
 30.07     614.29
 30.17     619.00
 30.27     615.00
 30.37     605.60
 30.47     616.00
 30.57     609.00
 30.67     641.00
 30.77     625.00
 30.87     616.00
 30.97     694.00
 31.07     650.00
 31.17     680.00
 31.27     624.00
 31.37     574.56
 31.47     531.47
 31.57     613.00
 31.67     616.00
 31.77     591.00
 31.87     610.18
 31.97     544.16
 32.07     576.00
 32.17     558.00
 32.27     577.00
 32.37     555.00
 32.47     571.00
 32.57     590.00
 32.67     545.00
 32.77     606.61
 32.87     547.00
 32.97     576.00
 33.07     548.00
 33.17     575.00
 33.27     539.00
 33.37     592.00
 33.47     564.00
 33.57     640.46
 33.67     628.19
 33.77     670.00
 33.87     714.00
 33.97     916.00
 34.07     946.00
 34.17    1068.00
 34.27    1017.99
 34.37     946.00
 34.47     823.00
 34.57     708.37
 34.67     667.00
 34.77     633.49
 34.87     567.00
 34.97     588.00
 35.07     578.00
 35.17     556.64
 35.27     552.00
 35.37     565.52
 35.47     539.33
 35.57     575.00
 35.67     518.00
 35.77     530.00
 35.87     507.32
 35.97     524.53
 36.07     492.62
 36.17     509.57
 36.27     524.00
 36.37     520.00
 36.47     560.20
 36.57     498.00
 36.67     501.82
 36.77     489.00
 36.87     498.08
 36.97     518.00
 37.07     499.00
 37.17     548.00
 37.27     530.86
 37.37     504.00
 37.47     536.00
 37.57     575.00
 37.67     526.00
 37.77     540.00
 37.87     543.00
 37.97     509.00
 38.07     545.25
 38.17     518.00
 38.27     579.56
 38.37     580.24
 38.47     563.70
 38.57     490.00
 38.67     488.00
 38.77     484.00
 38.87     567.75
 38.97     500.00
 39.07     513.00
 39.17     471.00
 39.27     540.00
 39.37     476.45
 39.47     499.00
 39.57     517.79
 39.67     481.00
 39.77     539.00
 39.87     500.00
 39.97     513.00
 40.07     532.87
 40.17     493.00
 40.27     500.00
 40.37     456.00
 40.47     559.69
 40.57     539.00
 40.67     496.00
 40.77     558.86
 40.87     543.48
 40.97     520.12
 41.07     543.05
 41.17     476.00
 41.27     548.00
 41.37     533.00
 41.47     533.00
 41.57     494.00
 41.67     533.00
 41.77     472.02
 41.87     542.00
 41.97     479.77
 42.07     492.00
 42.17     547.00
 42.27     514.00
 42.37     553.00
 42.47     543.00
 42.57     545.00
 42.67     558.00
 42.77     683.22
 42.87     602.92
 42.97     561.00
 43.07     610.33
 43.17     594.00
 43.27     527.07
 43.37     513.23
 43.47     535.00
 43.57     492.00
 43.67     515.00
 43.77     540.00
 43.87     564.47
 43.97     508.84
 44.07     499.10
 44.17     528.82
 44.27     526.00
 44.37     511.00
 44.47     506.00
 44.57     524.00
 44.67     560.87
 44.77     534.00
 44.87     506.00
 44.97     535.56
 45.07     574.00
 45.17     556.98
 45.27     469.98
 45.37     501.00
 45.47     490.00
 45.57     501.00
 45.67     518.70
 45.77     497.11
 45.87     520.76
 45.97     557.85
 46.07     495.00
 46.17     476.00
 46.27     494.89
 46.37     558.00
 46.47     528.00
 46.57     521.00
 46.67     483.08
 46.77     481.34
 46.87     521.00
 46.97     500.00
 47.07     469.67
 47.17     555.20
 47.27     546.80
 47.37     523.75
 47.47     551.00
 47.57     540.00
 47.67     557.00
 47.77     615.94
 47.87     550.92
 47.97     584.00
 48.07     636.37
 48.17     605.00
 48.27     559.80
 48.37     538.23
 48.47     549.00
 48.57     567.00
 48.67     515.00
 48.77     586.24
 48.87     580.01
 48.97     534.00
 49.07     550.00
 49.17     597.35
 49.27     548.25
 49.37     563.00
 49.47     575.00
 49.57     628.00
 49.67     706.00
 49.77     830.00
 49.87    1021.75
 49.97    1296.00
 50.07    1558.85
 50.17    1963.67
 50.27    2192.49
 50.37    2396.17
 50.47    2356.00
 50.57    2119.30
 50.67    1644.00
 50.77    1265.00
 50.87     984.00
 50.97     912.45
 51.07     730.00
 51.17     762.85
 51.27     708.73
 51.37     655.00
 51.47     680.43
 51.57     569.68
 51.67     615.00
 51.77     568.00
 51.87     619.42
 51.97     593.37
 52.07     588.00
 52.17     578.00
 52.27     540.10
 52.37     593.00
 52.47     547.08
 52.57     580.00
 52.67     532.99
 52.77     590.00
 52.87     586.00
 52.97     624.00
 53.07     648.00
 53.17     770.00
 53.27     814.54
 53.37     917.00
 53.47    1016.42
 53.57    1110.61
 53.67    1202.73
 53.77    1211.00
 53.87    1195.00
 53.97     986.00
 54.07    1017.85
 54.17     856.00
 54.27     784.84
 54.37     662.00
 54.47     640.00
 54.57     666.48
 54.67     618.58
 54.77     563.74
 54.87     583.43
 54.97     572.00
 55.07     596.00
 55.17     552.92
 55.27     537.83
 55.37     554.00
 55.47     529.40
 55.57     603.66
 55.67     617.00
 55.77     572.56
 55.87     654.97
 55.97     655.00
 56.07     646.00
 56.17     681.19
 56.27     834.20
 56.37     873.03
 56.47     952.00
 56.57    1261.50
 56.67    1645.35
 56.77    1844.00
 56.87    2247.89
 56.97    2411.00
 57.07    2467.59
 57.17    2571.10
 57.27    2256.00
 57.37    2075.79
 57.47    1684.44
 57.57    1348.40
 57.67    1162.00
 57.77     940.25
 57.87     911.67
 57.97     801.00
 58.07     698.83
 58.17     653.36
 58.27     696.92
 58.37     720.00
 58.47     729.29
 58.57     851.24
 58.67     811.25
 58.77     952.00
 58.87    1004.63
 58.97    1149.03
 59.07    1133.00
 59.17    1326.00
 59.27    1257.00
 59.37    1272.00
 59.47    1163.51
 59.57    1234.00
 59.67    1194.00
 59.77    1246.00
 59.87    1193.00
 59.97    1199.00
 60.07    1283.00
 60.17    1315.92
 60.27    1383.62
 60.37    1590.00
 60.47    1574.00
 60.57    1565.00
 60.67    1455.00
 60.77    1339.00
 60.87    1044.71
 60.97    1040.00
 61.07     833.00
 61.17     772.00
 61.27     776.47
 61.37     716.00
 61.47     754.87
 61.57     763.00
 61.67     747.41
 61.77     801.00
 61.87     885.00
 61.97     988.00
 62.07    1175.97
 62.17    1227.96
 62.27    1261.00
 62.37    1326.75
 62.47    1341.00
 62.57    1307.57
 62.67    1198.07
 62.77    1025.00
 62.87     874.00
 62.97     834.27
 63.07     743.00
 63.17     667.00
 63.27     636.00
 63.37     636.00
 63.47     625.00
 63.57     628.54
 63.67     617.29
 63.77     644.00
 63.87     618.00
 63.97     672.20
 64.07     690.69
 64.17     683.00
 64.27     684.00
 64.37     808.00
 64.47     880.00
 64.57     859.00
 64.67     905.48
 64.77    1021.00
 64.87    1040.00
 64.97    1046.00
 65.07    1015.00
 65.17     930.90
 65.27     911.00
 65.37     785.00
 65.47     770.00
 65.57     776.75
 65.67     675.00
 65.77     664.00
 65.87     608.00
 65.97     669.36
 66.07     620.00
 66.17     568.79
 66.27     608.00
 66.37     576.00
 66.47     587.00
 66.57     582.25
 66.67     562.00
 66.77     629.00
 66.87     601.00
 66.97     573.00
 67.07     685.38
 67.17     606.24
 67.27     679.91
 67.37     715.98
 67.47     790.00
 67.57    1028.00
 67.67    1038.00
 67.77    1346.55
 67.87    1373.00
 67.97    1792.41
 68.07    1959.00
 68.17    2191.00
 68.27    2245.00
 68.37    2352.00
 68.47    2411.19
 68.57    2254.66
 68.67    2015.00
 68.77    1781.97
 68.87    1432.00
 68.97    1240.00
 69.07    1143.73
 69.17     976.00
 69.27     790.59
 69.37     699.00
 69.47     742.00
 69.57     714.00
 69.67     633.00
 69.77     654.00
 69.87     585.00
 69.97     608.00
 70.07     563.48
 70.17     565.05
 70.27     602.00
 70.37     582.00
 70.47     600.00
 70.57     569.00
 70.67     582.00
 70.77     628.10
 70.87     608.00
 70.97     672.00
 71.07     573.00
 71.17     681.00
 71.27     681.35
 71.37     726.00
 71.47     832.00
 71.57     859.00
 71.67     998.00
 71.77    1206.00
 71.87    1360.00
 71.97    1483.16
 72.07    1648.00
 72.17    1709.00
 72.27    1847.00
 72.37    1865.00
 72.47    1820.00
 72.57    1769.00
 72.67    1510.00
 72.77    1256.54
 72.87    1253.19
 72.97    1021.41
 73.07     930.22
 73.17     816.00
 73.27     855.00
 73.37     663.14
 73.47     699.00
 73.57     678.00
 73.67     624.80
 73.77     653.00
 73.87     649.00
 73.97     532.27
 74.07     646.00
 74.17     609.67
 74.27     515.24
 74.37     557.91
 74.47     651.00
 74.57     544.39
 74.67     602.00
 74.77     573.16
 74.87     656.00
 74.97     601.00
 75.07     575.19
 75.17     650.00
 75.27     615.00
 75.37     631.00
 75.47     581.00
 75.57     585.00
 75.67     525.49
 75.77     536.00
 75.87     561.00
 75.97     579.56
 76.07     582.00
 76.17     562.38
 76.27     603.00
 76.37     645.00
 76.47     671.86
 76.57     656.00
 76.67     707.00
 76.77     701.00
 76.87     709.00
 76.97     676.00
 77.07     640.30
 77.17     660.95
 77.27     644.00
 77.37     639.00
 77.47     609.00
 77.57     562.59
 77.67     580.13
 77.77     561.00
 77.87     500.00
 77.97     515.25
 78.07     515.00
 78.17     550.04
 78.27     530.00
 78.37     524.00
 78.47     500.00
 78.57     484.22
 78.67     568.45
 78.77     555.00
 78.87     526.00
 78.97     528.67
 79.07     481.00
 79.17     460.00
 79.27     496.92
 79.37     507.42
 79.47     516.00
 79.57     533.00
 79.67     472.48
 79.77     512.98
 79.87     550.00
 79.97     528.00
 80.07     522.00
 80.17     567.00
 80.27     548.00
 80.37     571.02
 80.47     637.00
 80.57     592.00
 80.67     629.00
 80.77     614.00
 80.87     604.00
 80.97     605.00
 81.07     616.72
 81.17     658.16
 81.27     680.00
 81.37     745.00
 81.47     691.00
 81.57     706.00
 81.67     711.42
 81.77     734.00
 81.87     737.00
 81.97     676.00
 82.07     751.00
 82.17     712.00
 82.27     653.00
 82.37     642.99
 82.47     714.49
 82.57     687.32
 82.67     686.61
 82.77     616.00
 82.87     629.45
 82.97     529.00
 83.07     541.00
 83.17     598.39
 83.27     523.00
 83.37     605.47
 83.47     506.77
 83.57     548.00
 83.67     556.00
 83.77     527.23
 83.87     564.00
 83.97     574.00
 84.07     585.30
 84.17     529.21
 84.27     556.79
 84.37     519.00
 84.47     582.00
 84.57     621.07
 84.67     530.75
 84.77     551.00
 84.87     552.75
 84.97     563.81
 85.07     524.00
 85.17     496.77
 85.27     501.00
 85.37     559.00
 85.47     470.00
 85.57     505.00
 85.67     491.68
 85.77     505.00
 85.87     525.00
 85.97     527.00
 86.07     533.47
 86.17     521.00
 86.27     492.00
 86.37     518.49
 86.47     561.00
 86.57     546.00
 86.67     570.16
 86.77     504.58
 86.87     547.00
 86.97     563.17
 87.07     557.00
 87.17     602.00
 87.27     599.00
 87.37     561.00
 87.47     636.00
 87.57     589.00
 87.67     638.00
 87.77     633.00
 87.87     607.11
 87.97     609.51
 88.07     653.00
 88.17     569.97
 88.27     600.00
 88.37     590.00
 88.47     557.12
 88.57     560.00
 88.67     558.00
 88.77     570.00
 88.87     549.00
 88.97     538.12
 89.07     565.87
 89.17     579.00
 89.27     569.00
 89.37     591.00
 89.47     556.00
 89.57     618.00
 89.67     603.00
 89.77     563.00
 89.87     647.09
 89.97     621.00
 90.07     637.53
 90.17     543.00
 90.27     571.00
 90.37     596.20
 90.47     547.14
 90.57     562.89
 90.67     531.00
 90.77     514.00
 90.87     548.67
 90.97     496.08
 91.07     490.00
 91.17     574.29
 91.27     520.00
 91.37     522.00
 91.47     490.00
 91.57     520.00
 91.67     502.00
 91.77     490.00
 91.87     492.19
 91.97     558.34
 92.07     485.00
 92.17     570.42
 92.27     546.00
 92.37     555.00
 92.47     623.00
 92.57     603.20
 92.67     553.00
 92.77     604.00
 92.87     615.00
 92.97     679.73
 93.07     651.00
 93.17     649.55
 93.27     679.00
 93.37     700.95
 93.47     694.41
 93.57     740.00
 93.67     768.00
 93.77     707.00
 93.87     775.05
 93.97     799.00
 94.07     807.86
 94.17     827.00
 94.27     784.38
 94.37     816.00
 94.47     868.00
 94.57     820.00
 94.67     890.00
 94.77     872.48
 94.87     852.18
 94.97     865.00
 95.07     872.57
 95.17     933.00
 95.27     821.30
 95.37     888.00
 95.47     892.00
 95.57     825.00
 95.67     789.34
 95.77     847.00
 95.87     771.00
 95.97     726.00
 96.07     739.00
 96.17     707.35
 96.27     666.31
 96.37     687.00
 96.47     740.57
 96.57     720.00
 96.67     775.00
 96.77     809.00
 96.87     798.00
 96.97     898.00
 97.07     924.00
 97.17     966.65
 97.27    1079.00
 97.37    1210.00
 97.47    1235.00
 97.57    1319.29
 97.67    1408.44
 97.77    1403.00
 97.87    1364.08
 97.97    1406.00
 98.07    1429.00
 98.17    1459.00
 98.27    1345.00
 98.37    1329.00
 98.47    1274.00
 98.57    1193.00
 98.67    1204.63
 98.77    1092.00
 98.87    1013.34
 98.97    1012.28
 99.07     929.00
 99.17     958.85
 99.27     927.37
 99.37     888.00
 99.47     935.16
 99.57     913.00
 99.67     904.00
 99.77    1036.00
 99.87    1016.00
 99.97    1064.57
100.07    1191.00
100.17    1246.24
100.27    1379.00
100.37    1488.00
100.47    1544.12
100.57    1653.00
100.67    1812.00
100.77    1842.00
100.87    1828.00
100.97    1883.00
101.07    1943.00
101.17    1880.00
101.27    1993.00
101.37    1840.17
101.47    1932.00
101.57    1886.00
101.67    1815.00
101.77    1710.93
101.87    1624.97
101.97    1654.00
102.07    1515.00
102.17    1463.00
102.27    1380.44
102.37    1318.00
102.47    1287.00
102.57    1182.99
102.67    1270.54
102.77    1174.00
102.87    1191.00
102.97    1147.00
103.07    1072.00
103.17    1135.22
103.27    1090.00
103.37    1056.89
103.47     976.00
103.57     983.00
103.67     901.00
103.77     872.16
103.87     856.59
103.97     836.00
104.07     780.00
104.17     788.00
104.27     743.00
104.37     656.37
104.47     660.00
104.57     660.54
104.67     591.00
104.77     578.00
104.87     596.00
104.97     572.00
105.07     594.00
105.17     534.00
105.27     581.00
105.37     554.00
105.47     519.00
105.57     550.00
105.67     590.00
105.77     555.00
105.87     598.00
105.97     534.00
106.07     568.22
106.17     575.00
106.27     561.00
106.37     576.00
106.47     528.00
106.57     600.70
106.67     544.81
106.77     624.00
106.87     575.50
106.97     623.00
107.07     615.00
107.17     648.00
107.27     668.00
107.37     685.00
107.47     643.00
107.57     686.00
107.67     741.00
107.77     655.00
107.87     724.89
107.97     676.00
108.07     697.00
108.17     677.00
108.27     719.21
108.37     672.00
108.47     712.00
108.57     698.25
108.67     698.00
108.77     684.84
108.87     718.00
108.97     650.00
109.07     650.00
109.17     752.50
109.27     734.00
109.37     706.00
109.47     693.00
109.57     678.00
109.67     686.81
109.77     716.00
109.87     715.00
109.97     656.07
110.07     650.00
110.17     652.04
110.27     642.00
110.37     653.55
110.47     595.75
110.57     624.00
110.67     619.00
110.77     639.00
110.87     612.00
110.97     536.00
111.07     589.00
111.17     515.08
111.27     558.38
111.37     503.79
111.47     541.00
111.57     574.00
111.67     554.77
111.77     556.00
111.87     566.00
111.97     597.00
112.07     514.00
112.17     531.00
112.27     566.00
112.37     537.00
112.47     557.49
112.57     570.00
112.67     526.95
112.77     603.40
112.87     597.90
112.97     536.06
113.07     573.00
113.17     566.94
113.27     612.00
113.37     582.00
113.47     545.85
113.57     594.18
113.67     639.00
113.77     617.00
113.87     664.00
113.97     651.00
114.07     736.00
114.17     696.00
114.27     769.73
114.37     785.00
114.47     783.00
114.57     862.32
114.67     911.00
114.77    1063.00
114.87    1018.77
114.97    1199.00
115.07    1352.40
115.17    1495.00
115.27    1687.00
115.37    1719.82
115.47    2169.00
115.57    2401.00
115.67    2591.07
115.77    2798.21
115.87    3241.00
115.97    3545.00
116.07    3703.49
116.17    4266.87
116.27    4651.00
116.37    4996.00
116.47    5312.00
116.57    5528.18
116.67    6077.00
116.77    6297.00
116.87    6427.00
116.97    6851.00
117.07    6763.52
117.17    6949.81
117.27    7081.31
117.37    6969.00
117.47    6736.84
117.57    6459.75
117.67    6397.66
117.77    5911.00
117.87    5759.13
117.97    5324.11
118.07    4955.00
118.17    4744.20
118.27    4230.00
118.37    3939.00
118.47    3697.00
118.57    3279.00
118.67    2881.00
118.77    2663.00
118.87    2444.83
118.97    2184.18
119.07    1904.00
119.17    1723.00
119.27    1563.97
119.37    1432.00
119.47    1252.03
119.57    1269.11
119.67    1151.00
119.77    1070.00
119.87     994.02
119.97     939.00
120.07     872.14
120.17     774.77
120.27     800.00
120.37     704.00
120.47     678.00
120.57     696.00
120.67     674.00
120.77     646.73
120.87     655.60
120.97     602.00
121.07     584.00
121.17     618.00
121.27     609.00
121.37     597.00
121.47     585.00
121.57     620.35
121.67     599.00
121.77     641.59
121.87     634.00
121.97     652.23
122.07     578.00
122.17     582.98
122.27     580.27
122.37     626.00
122.47     622.00
122.57     605.00
122.67     628.00
122.77     681.03
122.87     678.83
122.97     626.00
123.07     640.25
123.17     692.85
123.27     651.00
123.37     673.56
123.47     625.00
123.57     667.00
123.67     678.00
123.77     676.00
123.87     679.60
123.97     638.00
124.07     642.00
124.17     613.00
124.27     639.79
124.37     656.00
124.47     651.00
124.57     592.00
124.67     564.15
124.77     600.00
124.87     643.00
124.97     647.00
