  9.97     691.00
 10.07     650.00
 10.17     673.48
 10.27     702.00
 10.37     649.00
 10.47     742.00
 10.57     697.00
 10.67     648.00
 10.77     657.00
 10.87     663.00
 10.97     665.16
 11.07     695.00
 11.17     670.00
 11.27     641.00
 11.37     687.00
 11.47     677.99
 11.57     735.00
 11.67     643.27
 11.77     674.43
 11.87     638.75
 11.97     737.00
 12.07     676.88
 12.17     773.00
 12.27     817.89
 12.37     780.00
 12.47     693.00
 12.57     747.73
 12.67     638.00
 12.77     673.00
 12.87     633.00
 12.97     628.00
 13.07     638.32
 13.17     609.18
 13.27     616.00
 13.37     612.00
 13.47     621.35
 13.57     667.66
 13.67     588.44
 13.77     582.00
 13.87     590.00
 13.97     653.00
 14.07     661.00
 14.17     680.87
 14.27     605.00
 14.37     602.00
 14.47     593.21
 14.57     604.81
 14.67     637.00
 14.77     613.18
 14.87     596.00
 14.97     623.00
 15.07     625.00
 15.17     644.00
 15.27     622.00
 15.37     653.24
 15.47     685.14
 15.57     645.00
 15.67     589.00
 15.77     586.00
 15.87     604.03
 15.97     611.00
 16.07     645.00
 16.17     626.00
 16.27     672.35
 16.37     636.13
 16.47     623.00
 16.57     585.81
 16.67     647.98
 16.77     627.37
 16.87     579.00
 16.97     581.00
 17.07     587.83
 17.17     635.40
 17.27     587.00
 17.37     605.00
 17.47     610.36
 17.57     616.00
 17.67     632.00
 17.77     590.99
 17.87     609.00
 17.97     641.00
 18.07     565.00
 18.17     593.00
 18.27     550.00
 18.37     596.99
 18.47     601.00
 18.57     604.00
 18.67     601.00
 18.77     605.00
 18.87     598.80
 18.97     630.00
 19.07     592.00
 19.17     662.93
 19.27     584.88
 19.37     607.00
 19.47     585.00
 19.57     566.45
 19.67     584.00
 19.77     595.00
 19.87     653.53
 19.97     578.00
 20.07     587.45
 20.17     613.04
 20.27     588.99
 20.37     549.00
 20.47     615.00
 20.57     613.29
 20.67     645.47
 20.77     579.00
 20.87     657.10
 20.97     642.51
 21.07     622.00
 21.17     612.00
 21.27     585.62
 21.37     617.00
 21.47     577.00
 21.57     577.29
 21.67     622.81
 21.77     621.51
 21.87     611.58
 21.97     581.00
 22.07     595.00
 22.17     599.02
 22.27     600.00
 22.37     617.00
 22.47     601.00
 22.57     607.76
 22.67     653.39
 22.77     613.00
 22.87     593.00
 22.97     644.00
 23.07     650.00
 23.17     584.73
 23.27     586.00
 23.37     599.00
 23.47     580.00
 23.57     612.00
 23.67     633.00
 23.77     630.00
 23.87     637.00
 23.97     615.00
 24.07     638.00
 24.17     647.00
 24.27     575.54
 24.37     632.00
 24.47     663.00
 24.57     644.14
 24.67     640.14
 24.77     697.00
 24.87     736.00
 24.97     644.55
 25.07     723.00
 25.17     674.00
 25.27     656.00
 25.37     617.74
 25.47     661.00
 25.57     585.66
 25.67     631.00
 25.77     663.00
 25.87     591.42
 25.97     643.00
 26.07     613.00
 26.17     634.00
 26.27     595.00
 26.37     634.89
 26.47     640.22
 26.57     667.00
 26.67     626.00
 26.77     668.00
 26.87     635.00
 26.97     656.00
 27.07     688.63
 27.17     676.00
 27.27     643.00
 27.37     753.00
 27.47     686.98
 27.57     630.93
 27.67     735.85
 27.77     845.00
 27.87     839.38
 27.97    1127.43
 28.07    1321.00
 28.17    1985.57
 28.27    2574.00
 28.37    2947.62
 28.47    2927.00
 28.57    2352.96
 28.67    1885.00
 28.77    1482.00
 28.87    1645.00
 28.97    1889.00
 29.07    1866.89
 29.17    1823.00
 29.27    1541.00
 29.37    1311.00
 29.47    1028.00
 29.57     929.00
 29.67     729.90
 29.77     758.00
 29.87     627.88
 29.97     605.64
 30.07     683.31
 30.17     731.00
 30.27     718.00
 30.37     660.00
 30.47     662.00
 30.57     640.01
 30.67     636.34
 30.77     608.35
 30.87     712.00
 30.97     654.81
 31.07     717.00
 31.17     737.57
 31.27     749.00
 31.37     658.00
 31.47     683.00
 31.57     672.00
 31.67     641.00
 31.77     606.00
 31.87     585.00
 31.97     616.00
 32.07     626.00
 32.17     589.00
 32.27     581.00
 32.37     598.00
 32.47     606.00
 32.57     602.55
 32.67     559.46
 32.77     556.00
 32.87     616.14
 32.97     624.00
 33.07     562.53
 33.17     578.00
 33.27     590.00
 33.37     604.55
 33.47     605.00
 33.57     634.00
 33.67     646.00
 33.77     674.00
 33.87     794.59
 33.97     907.73
 34.07    1009.00
 34.17    1096.90
 34.27    1144.00
 34.37    1062.00
 34.47     857.00
 34.57     835.13
 34.67     724.11
 34.77     634.00
 34.87     594.67
 34.97     612.00
 35.07     580.00
 35.17     579.00
 35.27     583.00
 35.37     566.00
 35.47     541.70
 35.57     590.60
 35.67     577.00
 35.77     587.00
 35.87     527.00
 35.97     541.00
 36.07     558.28
 36.17     561.00
 36.27     569.00
 36.37     591.30
 36.47     563.18
 36.57     588.00
 36.67     589.00
 36.77     556.00
 36.87     536.00
 36.97     512.33
 37.07     553.00
 37.17     523.88
 37.27     557.00
 37.37     558.00
 37.47     594.09
 37.57     609.00
 37.67     587.00
 37.77     556.00
 37.87     594.00
 37.97     554.00
 38.07     607.56
 38.17     615.00
 38.27     637.00
 38.37     591.00
 38.47     577.40
 38.57     631.42
 38.67     552.00
 38.77     596.89
 38.87     577.00
 38.97     569.00
 39.07     563.11
 39.17     518.22
 39.27     582.78
 39.37     556.00
 39.47     590.00
 39.57     596.00
 39.67     532.00
 39.77     566.00
 39.87     580.77
 39.97     502.00
 40.07     567.00
 40.17     572.62
 40.27     568.00
 40.37     577.00
 40.47     516.00
 40.57     544.00
 40.67     533.00
 40.77     523.00
 40.87     584.00
 40.97     508.00
 41.07     559.00
 41.17     517.46
 41.27     540.00
 41.37     538.00
 41.47     512.00
 41.57     549.00
 41.67     473.00
 41.77     550.00
 41.87     534.00
 41.97     566.29
 42.07     578.12
 42.17     564.00
 42.27     564.00
 42.37     539.00
 42.47     601.38
 42.57     608.74
 42.67     575.16
 42.77     655.00
 42.87     613.00
 42.97     622.00
 43.07     673.00
 43.17     605.00
 43.27     639.99
 43.37     608.33
 43.47     556.00
 43.57     566.00
 43.67     574.00
 43.77     541.29
 43.87     541.01
 43.97     516.00
 44.07     533.77
 44.17     530.05
 44.27     584.00
 44.37     539.00
 44.47     515.00
 44.57     583.00
 44.67     556.99
 44.77     523.54
 44.87     548.16
 44.97     576.00
 45.07     560.01
 45.17     565.00
 45.27     535.00
 45.37     519.00
 45.47     557.00
 45.57     598.14
 45.67     595.00
 45.77     499.03
 45.87     532.00
 45.97     540.00
 46.07     488.00
 46.17     535.61
 46.27     508.12
 46.37     570.67
 46.47     572.00
 46.57     536.07
 46.67     592.41
 46.77     521.00
 46.87     555.00
 46.97     586.00
 47.07     596.28
 47.17     560.00
 47.27     562.00
 47.37     561.00
 47.47     536.45
 47.57     603.49
 47.67     559.00
 47.77     559.43
 47.87     605.00
 47.97     655.00
 48.07     672.00
 48.17     603.00
 48.27     686.24
 48.37     630.00
 48.47     605.00
 48.57     594.37
 48.67     584.00
 48.77     556.00
 48.87     577.28
 48.97     619.00
 49.07     545.16
 49.17     629.78
 49.27     610.00
 49.37     611.00
 49.47     669.43
 49.57     656.56
 49.67     747.60
 49.77     865.61
 49.87     885.00
 49.97    1241.04
 50.07    1425.00
 50.17    1823.00
 50.27    2253.47
 50.37    2560.77
 50.47    2596.00
 50.57    2416.00
 50.67    2157.25
 50.77    1697.00
 50.87    1329.76
 50.97    1089.34
 51.07     840.00
 51.17     795.00
 51.27     733.83
 51.37     771.89
 51.47     707.45
 51.57     664.00
 51.67     648.00
 51.77     638.00
 51.87     612.00
 51.97     643.00
 52.07     576.00
 52.17     617.00
 52.27     655.00
 52.37     597.00
 52.47     583.00
 52.57     637.00
 52.67     627.00
 52.77     602.51
 52.87     575.41
 52.97     680.44
 53.07     634.00
 53.17     649.17
 53.27     786.01
 53.37     925.00
 53.47     964.88
 53.57    1131.00
 53.67    1203.00
 53.77    1248.00
 53.87    1258.00
 53.97    1222.00
 54.07    1114.00
 54.17    1012.62
 54.27     817.00
 54.37     810.11
 54.47     696.00
 54.57     704.00
 54.67     694.44
 54.77     630.00
 54.87     637.00
 54.97     637.00
 55.07     642.41
 55.17     611.00
 55.27     663.00
 55.37     567.23
 55.47     629.00
 55.57     621.00
 55.67     630.00
 55.77     665.00
 55.87     658.00
 55.97     670.51
 56.07     650.39
 56.17     690.00
 56.27     783.00
 56.37     834.00
 56.47     964.65
 56.57    1068.00
 56.67    1334.44
 56.77    1693.18
 56.87    1990.00
 56.97    2320.00
 57.07    2457.07
 57.17    2672.00
 57.27    2547.27
 57.37    2246.40
 57.47    2039.00
 57.57    1759.95
 57.67    1442.78
 57.77    1211.66
 57.87     973.49
 57.97     877.46
 58.07     801.22
 58.17     715.00
 58.27     765.00
 58.37     763.00
 58.47     760.65
 58.57     770.00
 58.67     879.00
 58.77     964.00
 58.87    1028.20
 58.97    1085.00
 59.07    1154.27
 59.17    1243.00
 59.27    1273.00
 59.37    1319.00
 59.47    1273.00
 59.57    1271.00
 59.67    1223.00
 59.77    1215.44
 59.87    1196.00
 59.97    1191.00
 60.07    1148.28
 60.17    1285.00
 60.27    1416.00
 60.37    1514.00
 60.47    1636.00
 60.57    1502.45
 60.67    1629.00
 60.77    1445.00
 60.87    1365.00
 60.97    1185.00
 61.07     923.61
 61.17     929.00
 61.27     838.00
 61.37     792.18
 61.47     801.00
 61.57     698.08
 61.67     743.00
 61.77     772.00
 61.87     912.00
 61.97     958.00
 62.07    1084.00
 62.17    1216.00
 62.27    1284.00
 62.37    1466.00
 62.47    1480.61
 62.57    1465.36
 62.67    1417.52
 62.77    1292.00
 62.87    1112.00
 62.97    1037.68
 63.07     861.00
 63.17     803.00
 63.27     737.00
 63.37     731.11
 63.47     654.00
 63.57     675.00
 63.67     715.00
 63.77     635.00
 63.87     631.00
 63.97     657.00
 64.07     715.00
 64.17     707.00
 64.27     738.22
 64.37     811.00
 64.47     840.58
 64.57     864.16
 64.67    1054.00
 64.77     982.60
 64.87    1145.00
 64.97    1126.50
 65.07    1187.32
 65.17    1174.00
 65.27    1080.00
 65.37    1089.00
 65.47    1041.00
 65.57     864.00
 65.67     890.73
 65.77     808.78
 65.87     756.49
 65.97     753.49
 66.07     687.00
 66.17     605.00
 66.27     616.00
 66.37     691.33
 66.47     628.00
 66.57     615.00
 66.67     631.70
 66.77     623.00
 66.87     590.00
 66.97     668.42
 67.07     647.00
 67.17     685.73
 67.27     656.07
 67.37     675.21
 67.47     803.00
 67.57     817.00
 67.67     943.00
 67.77    1120.00
 67.87    1260.00
 67.97    1466.00
 68.07    1663.68
 68.17    1944.05
 68.27    2110.90
 68.37    2365.00
 68.47    2365.00
 68.57    2428.24
 68.67    2285.00
 68.77    2041.00
 68.87    1777.00
 68.97    1596.94
 69.07    1322.56
 69.17    1094.00
 69.27     997.00
 69.37     815.00
 69.47     827.00
 69.57     690.18
 69.67     719.31
 69.77     695.73
 69.87     673.01
 69.97     626.09
 70.07     642.00
 70.17     638.00
 70.27     673.54
 70.37     610.63
 70.47     600.00
 70.57     629.00
 70.67     630.00
 70.77     638.00
 70.87     665.12
 70.97     677.86
 71.07     638.00
 71.17     639.00
 71.27     673.00
 71.37     712.47
 71.47     834.89
 71.57     863.92
 71.67     951.00
 71.77    1014.34
 71.87    1204.00
 71.97    1334.91
 72.07    1518.69
 72.17    1724.00
 72.27    1750.00
 72.37    1858.00
 72.47    1990.69
 72.57    1921.00
 72.67    1727.00
 72.77    1571.00
 72.87    1482.09
 72.97    1308.00
 73.07    1228.00
 73.17     949.98
 73.27     901.13
 73.37     808.00
 73.47     725.44
 73.57     648.06
 73.67     722.00
 73.77     701.00
 73.87     685.00
 73.97     639.00
 74.07     645.82
 74.17     637.70
 74.27     651.35
 74.37     548.24
 74.47     613.00
 74.57     665.79
 74.67     569.72
 74.77     669.63
 74.87     631.00
 74.97     697.00
 75.07     638.00
 75.17     680.00
 75.27     628.32
 75.37     557.55
 75.47     658.00
 75.57     655.00
 75.67     625.00
 75.77     664.00
 75.87     644.60
 75.97     620.00
 76.07     627.00
 76.17     592.72
 76.27     663.00
 76.37     687.00
 76.47     712.00
 76.57     759.00
 76.67     759.98
 76.77     704.91
 76.87     771.22
 76.97     815.00
 77.07     775.00
 77.17     843.00
 77.27     735.00
 77.37     762.07
 77.47     664.00
 77.57     633.19
 77.67     645.00
 77.77     576.00
 77.87     554.00
 77.97     635.89
 78.07     573.42
 78.17     597.00
 78.27     583.00
 78.37     550.00
 78.47     573.87
 78.57     583.89
 78.67     548.00
 78.77     519.12
 78.87     542.08
 78.97     554.00
 79.07     592.54
 79.17     552.00
 79.27     584.00
 79.37     588.69
 79.47     545.00
 79.57     609.36
 79.67     599.18
 79.77     579.00
 79.87     604.00
 79.97     553.00
 80.07     622.43
 80.17     575.76
 80.27     579.00
 80.37     646.32
 80.47     632.00
 80.57     715.00
 80.67     659.05
 80.77     665.62
 80.87     717.08
 80.97     711.00
 81.07     801.00
 81.17     772.51
 81.27     917.53
 81.37     853.00
 81.47     853.06
 81.57     909.00
 81.67     991.00
 81.77     932.00
 81.87     952.90
 81.97     902.00
 82.07     914.00
 82.17     818.88
 82.27     821.00
 82.37     814.00
 82.47     740.00
 82.57     770.00
 82.67     693.17
 82.77     657.00
 82.87     624.00
 82.97     679.00
 83.07     628.00
 83.17     631.73
 83.27     604.49
 83.37     600.00
 83.47     595.26
 83.57     570.00
 83.67     584.00
 83.77     549.43
 83.87     585.00
 83.97     535.00
 84.07     586.00
 84.17     560.17
 84.27     649.00
 84.37     575.00
 84.47     573.00
 84.57     600.00
 84.67     599.00
 84.77     593.00
 84.87     643.48
 84.97     559.50
 85.07     606.00
 85.17     604.00
 85.27     592.00
 85.37     598.00
 85.47     554.00
 85.57     548.00
 85.67     570.00
 85.77     590.25
 85.87     551.00
 85.97     589.00
 86.07     538.00
 86.17     514.00
 86.27     570.00
 86.37     571.00
 86.47     565.32
 86.57     571.00
 86.67     531.00
 86.77     565.00
 86.87     586.00
 86.97     602.57
 87.07     585.00
 87.17     617.00
 87.27     608.00
 87.37     592.00
 87.47     638.43
 87.57     646.00
 87.67     691.00
 87.77     710.00
 87.87     738.00
 87.97     686.62
 88.07     635.18
 88.17     705.00
 88.27     633.71
 88.37     710.00
 88.47     651.00
 88.57     638.00
 88.67     588.93
 88.77     620.00
 88.87     625.00
 88.97     651.35
 89.07     636.00
 89.17     633.00
 89.27     640.00
 89.37     585.00
 89.47     621.00
 89.57     656.00
 89.67     656.00
 89.77     630.67
 89.87     606.00
 89.97     649.62
 90.07     642.00
 90.17     652.14
 90.27     604.10
 90.37     558.38
 90.47     598.02
 90.57     599.00
 90.67     560.00
 90.77     603.00
 90.87     531.00
 90.97     583.00
 91.07     558.33
 91.17     546.00
 91.27     547.71
 91.37     590.98
 91.47     560.00
 91.57     572.00
 91.67     528.11
 91.77     551.00
 91.87     596.23
 91.97     539.20
 92.07     564.87
 92.17     582.00
 92.27     527.00
 92.37     614.52
 92.47     627.22
 92.57     579.00
 92.67     638.22
 92.77     624.00
 92.87     590.00
 92.97     605.00
 93.07     634.14
 93.17     668.00
 93.27     668.61
 93.37     654.00
 93.47     712.00
 93.57     741.00
 93.67     788.46
 93.77     754.00
 93.87     748.17
 93.97     746.00
 94.07     838.00
 94.17     852.00
 94.27     801.52
 94.37     870.00
 94.47     866.28
 94.57     844.00
 94.67     875.00
 94.77     867.75
 94.87     987.12
 94.97     947.00
 95.07     917.00
 95.17     958.00
 95.27     940.91
 95.37     967.35
 95.47     961.00
 95.57     982.00
 95.67     896.00
 95.77     905.00
 95.87     861.00
 95.97     871.99
 96.07     785.00
 96.17     732.06
 96.27     783.00
 96.37     772.00
 96.47     728.93
 96.57     749.00
 96.67     733.26
 96.77     805.00
 96.87     835.02
 96.97     854.00
 97.07     912.00
 97.17     900.00
 97.27    1012.00
 97.37    1093.00
 97.47    1084.74
 97.57    1183.88
 97.67    1336.00
 97.77    1386.00
 97.87    1463.00
 97.97    1567.01
 98.07    1487.17
 98.17    1507.31
 98.27    1491.00
 98.37    1514.00
 98.47    1453.70
 98.57    1341.38
 98.67    1302.00
 98.77    1264.00
 98.87    1163.00
 98.97    1135.82
 99.07    1054.00
 99.17    1020.00
 99.27     955.00
 99.37     915.00
 99.47     943.00
 99.57     999.03
 99.67     974.00
 99.77     996.66
 99.87     983.91
 99.97    1062.00
100.07    1114.00
100.17    1141.00
100.27    1232.00
100.37    1365.00
100.47    1416.57
100.57    1475.03
100.67    1637.00
100.77    1768.00
100.87    1744.01
100.97    1966.63
101.07    1959.24
101.17    1951.00
101.27    2022.00
101.37    2092.00
101.47    2049.42
101.57    1992.00
101.67    1973.00
101.77    1938.00
101.87    1897.00
101.97    1811.00
102.07    1719.00
102.17    1633.00
102.27    1494.00
102.37    1465.00
102.47    1407.00
102.57    1487.55
102.67    1416.74
102.77    1320.25
102.87    1213.00
102.97    1231.16
103.07    1274.88
103.17    1194.37
103.27    1152.00
103.37    1120.00
103.47    1069.00
103.57    1001.00
103.67    1030.35
103.77     948.00
103.87    1010.00
103.97     978.00
104.07     853.64
104.17     865.72
104.27     831.00
104.37     814.00
104.47     776.00
104.57     752.62
104.67     662.19
104.77     620.13
104.87     654.00
104.97     612.00
105.07     648.02
105.17     606.00
105.27     613.00
105.37     628.49
105.47     619.00
105.57     563.00
105.67     614.03
105.77     565.65
105.87     554.69
105.97     614.00
106.07     599.00
106.17     598.00
106.27     599.00
106.37     523.47
106.47     604.89
106.57     636.00
106.67     650.00
106.77     648.00
106.87     641.00
106.97     619.58
107.07     609.71
107.17     662.00
107.27     656.00
107.37     663.00
107.47     646.05
107.57     696.00
107.67     709.76
107.77     691.70
107.87     678.00
107.97     768.30
108.07     716.54
108.17     716.00
108.27     713.00
108.37     699.17
108.47     681.00
108.57     711.45
108.67     734.00
108.77     725.00
108.87     678.00
108.97     715.00
109.07     744.00
109.17     690.00
109.27     733.00
109.37     708.00
109.47     747.00
109.57     742.00
109.67     743.00
109.77     737.00
109.87     776.05
109.97     719.00
110.07     690.00
110.17     682.66
110.27     686.00
110.37     699.89
110.47     681.00
110.57     654.00
110.67     592.37
110.77     665.00
110.87     651.00
110.97     603.56
111.07     604.37
111.17     556.05
111.27     616.00
111.37     578.00
111.47     593.00
111.57     606.89
111.67     617.00
111.77     592.00
111.87     585.29
111.97     591.00
112.07     575.00
112.17     525.86
112.27     593.00
112.37     548.00
112.47     580.54
112.57     548.00
112.67     599.00
112.77     544.00
112.87     632.00
112.97     624.99
113.07     536.00
113.17     601.00
113.27     640.00
113.37     618.72
113.47     610.00
113.57     577.00
113.67     613.00
113.77     587.88
113.87     623.00
113.97     670.24
114.07     617.00
114.17     710.88
114.27     695.00
114.37     702.00
114.47     701.62
114.57     726.30
114.67     749.31
114.77     838.27
114.87     871.40
114.97     955.32
115.07    1116.96
115.17    1208.51
115.27    1240.00
115.37    1479.39
115.47    1611.02
115.57    1800.92
115.67    2010.37
115.77    2258.00
115.87    2425.37
115.97    2667.93
116.07    3030.00
116.17    3447.00
116.27    3734.35
116.37    3996.00
116.47    4549.00
116.57    4911.00
116.67    5241.00
116.77    5717.77
116.87    6021.34
116.97    6276.00
117.07    6737.00
117.17    7058.00
117.27    7046.00
117.37    7346.19
117.47    7167.00
117.57    7226.00
117.67    7186.78
117.77    6880.00
117.87    6723.00
117.97    6390.00
118.07    6101.00
118.17    5721.00
118.27    5267.00
118.37    4947.00
118.47    4691.00
118.57    4359.35
118.67    4003.00
118.77    3763.00
118.87    3326.00
118.97    3044.05
119.07    2739.00
119.17    2408.00
119.27    2120.00
119.37    1986.00
119.47    1700.00
119.57    1687.39
119.67    1520.00
119.77    1330.00
119.87    1228.00
119.97    1160.23
120.07    1128.00
120.17     977.00
120.27     981.00
120.37     933.00
120.47     815.00
120.57     827.00
120.67     756.20
120.77     787.00
120.87     707.00
120.97     751.72
121.07     738.02
121.17     693.27
121.27     645.99
121.37     675.00
121.47     701.89
121.57     635.00
121.67     674.00
121.77     634.00
121.87     673.00
121.97     604.00
122.07     651.00
122.17     683.00
122.27     621.00
122.37     578.00
122.47     620.00
122.57     666.00
122.67     698.04
122.77     672.00
122.87     674.51
122.97     660.00
123.07     657.49
123.17     667.00
123.27     671.62
123.37     720.00
123.47     658.83
123.57     659.00
123.67     687.00
123.77     730.00
123.87     729.64
123.97     692.00
124.07     745.00
124.17     728.77
124.27     730.93
124.37     680.45
124.47     732.26
124.57     662.00
124.67     695.00
124.77     681.13
124.87     642.00
124.97     695.00
