  9.97     652.00
 10.07     557.20
 10.17     614.00
 10.27     606.00
 10.37     580.00
 10.47     577.25
 10.57     617.00
 10.67     604.00
 10.77     603.00
 10.87     589.00
 10.97     530.00
 11.07     547.61
 11.17     538.86
 11.27     567.00
 11.37     598.00
 11.47     620.00
 11.57     636.00
 11.67     583.18
 11.77     587.41
 11.87     594.74
 11.97     638.00
 12.07     672.00
 12.17     661.35
 12.27     696.00
 12.37     668.00
 12.47     693.05
 12.57     608.00
 12.67     549.37
 12.77     602.00
 12.87     559.00
 12.97     553.00
 13.07     593.00
 13.17     560.00
 13.27     536.40
 13.37     548.00
 13.47     574.00
 13.57     595.55
 13.67     619.34
 13.77     549.00
 13.87     543.00
 13.97     608.00
 14.07     544.00
 14.17     558.00
 14.27     543.00
 14.37     535.00
 14.47     555.00
 14.57     562.00
 14.67     550.00
 14.77     543.20
 14.87     587.96
 14.97     559.00
 15.07     540.00
 15.17     560.00
 15.27     501.00
 15.37     571.00
 15.47     557.23
 15.57     530.00
 15.67     555.00
 15.77     607.00
 15.87     585.30
 15.97     532.02
 16.07     553.00
 16.17     531.00
 16.27     510.00
 16.37     546.00
 16.47     520.93
 16.57     548.00
 16.67     560.00
 16.77     583.00
 16.87     593.80
 16.97     557.00
 17.07     585.00
 17.17     552.00
 17.27     528.55
 17.37     539.38
 17.47     555.00
 17.57     535.46
 17.67     556.00
 17.77     559.76
 17.87     550.00
 17.97     592.00
 18.07     559.18
 18.17     519.00
 18.27     586.00
 18.37     536.03
 18.47     516.28
 18.57     598.14
 18.67     589.17
 18.77     545.03
 18.87     587.19
 18.97     607.00
 19.07     538.81
 19.17     562.00
 19.27     577.00
 19.37     595.00
 19.47     552.00
 19.57     540.00
 19.67     588.74
 19.77     545.00
 19.87     570.00
 19.97     539.11
 20.07     512.34
 20.17     568.00
 20.27     558.00
 20.37     543.00
 20.47     546.59
 20.57     561.00
 20.67     554.66
 20.77     577.44
 20.87     536.00
 20.97     600.19
 21.07     585.61
 21.17     560.00
 21.27     522.44
 21.37     580.90
 21.47     569.00
 21.57     551.00
 21.67     556.00
 21.77     577.00
 21.87     521.00
 21.97     552.85
 22.07     574.87
 22.17     516.87
 22.27     550.00
 22.37     598.80
 22.47     564.00
 22.57     565.37
 22.67     578.00
 22.77     541.00
 22.87     581.22
 22.97     539.00
 23.07     531.91
 23.17     517.91
 23.27     567.00
 23.37     524.08
 23.47     581.17
 23.57     598.00
 23.67     543.87
 23.77     587.00
 23.87     505.62
 23.97     542.18
 24.07     536.00
 24.17     590.00
 24.27     559.59
 24.37     597.00
 24.47     578.84
 24.57     602.13
 24.67     648.00
 24.77     677.38
 24.87     629.70
 24.97     631.00
 25.07     574.13
 25.17     569.00
 25.27     569.90
 25.37     560.00
 25.47     569.00
 25.57     562.00
 25.67     537.06
 25.77     581.54
 25.87     583.00
 25.97     540.11
 26.07     551.00
 26.17     505.00
 26.27     543.00
 26.37     546.00
 26.47     562.00
 26.57     612.00
 26.67     548.50
 26.77     559.00
 26.87     540.00
 26.97     576.00
 27.07     533.00
 27.17     508.09
 27.27     542.41
 27.37     586.76
 27.47     589.00
 27.57     550.59
 27.67     583.63
 27.77     524.00
 27.87     645.00
 27.97     677.00
 28.07     776.59
 28.17     910.00
 28.27     937.00
 28.37     991.00
 28.47     835.00
 28.57     684.44
 28.67     691.93
 28.77     728.00
 28.87     842.44
 28.97     867.00
 29.07     803.03
 29.17     690.89
 29.27     669.27
 29.37     602.00
 29.47     651.00
 29.57     598.00
 29.67     607.00
 29.77     547.97
 29.87     552.68
 29.97     537.63
 30.07     554.00
 30.17     526.62
 30.27     567.77
 30.37     576.00
 30.47     560.85
 30.57     575.00
 30.67     556.00
 30.77     626.08
 30.87     614.00
 30.97     603.00
 31.07     619.00
 31.17     586.00
 31.27     596.82
 31.37     552.03
 31.47     511.00
 31.57     571.00
 31.67     529.00
 31.77     529.00
 31.87     525.00
 31.97     553.00
 32.07     517.00
 32.17     575.00
 32.27     563.00
 32.37     568.00
 32.47     551.00
 32.57     578.00
 32.67     559.00
 32.77     483.31
 32.87     506.95
 32.97     518.00
 33.07     527.00
 33.17     556.74
 33.27     575.73
 33.37     530.00
 33.47     551.61
 33.57     586.00
 33.67     628.00
 33.77     767.00
 33.87     861.00
 33.97     926.75
 34.07    1046.00
 34.17    1093.66
 34.27     930.00
 34.37     791.00
 34.47     648.60
 34.57     593.00
 34.67     563.00
 34.77     548.00
 34.87     557.00
 34.97     525.00
 35.07     547.00
 35.17     571.03
 35.27     556.00
 35.37     502.00
 35.47     545.00
 35.57     507.00
 35.67     527.39
 35.77     492.00
 35.87     526.58
 35.97     549.34
 36.07     516.00
 36.17     511.00
 36.27     491.00
 36.37     503.00
 36.47     558.32
 36.57     473.26
 36.67     491.00
 36.77     494.00
 36.87     512.00
 36.97     489.32
 37.07     513.00
 37.17     513.00
 37.27     494.32
 37.37     511.03
 37.47     476.00
 37.57     544.09
 37.67     540.00
 37.77     512.00
 37.87     497.00
 37.97     490.74
 38.07     478.00
 38.17     489.00
 38.27     534.00
 38.37     507.00
 38.47     489.00
 38.57     541.07
 38.67     525.00
 38.77     491.00
 38.87     489.00
 38.97     466.85
 39.07     465.00
 39.17     507.36
 39.27     525.25
 39.37     504.00
 39.47     474.00
 39.57     474.10
 39.67     520.00
 39.77     487.00
 39.87     507.00
 39.97     518.92
 40.07     498.00
 40.17     499.00
 40.27     537.57
 40.37     439.00
 40.47     514.00
 40.57     489.00
 40.67     546.33
 40.77     484.00
 40.87     505.00
 40.97     544.70
 41.07     511.00
 41.17     504.00
 41.27     544.87
 41.37     489.00
 41.47     469.00
 41.57     466.00
 41.67     501.56
 41.77     471.08
 41.87     512.78
 41.97     497.00
 42.07     518.00
 42.17     531.00
 42.27     534.00
 42.37     565.18
 42.47     550.00
 42.57     548.85
 42.67     600.00
 42.77     643.40
 42.87     575.00
 42.97     536.00
 43.07     550.88
 43.17     502.00
 43.27     499.57
 43.37     467.06
 43.47     510.00
 43.57     523.22
 43.67     543.52
 43.77     513.00
 43.87     486.50
 43.97     492.96
 44.07     462.20
 44.17     463.40
 44.27     539.00
 44.37     490.00
 44.47     469.00
 44.57     474.48
 44.67     486.00
 44.77     540.00
 44.87     501.05
 44.97     468.00
 45.07     467.56
 45.17     524.28
 45.27     507.00
 45.37     519.00
 45.47     513.58
 45.57     505.80
 45.67     485.00
 45.77     533.00
 45.87     541.00
 45.97     484.00
 46.07     521.98
 46.17     514.45
 46.27     489.00
 46.37     473.00
 46.47     533.00
 46.57     520.05
 46.67     523.35
 46.77     514.00
 46.87     507.00
 46.97     469.30
 47.07     489.00
 47.17     513.00
 47.27     514.00
 47.37     537.00
 47.47     534.00
 47.57     567.54
 47.67     567.49
 47.77     589.00
 47.87     567.58
 47.97     592.00
 48.07     593.71
 48.17     536.00
 48.27     548.00
 48.37     509.00
 48.47     502.00
 48.57     495.74
 48.67     551.00
 48.77     580.80
 48.87     545.00
 48.97     509.15
 49.07     542.75
 49.17     598.26
 49.27     600.00
 49.37     684.44
 49.47     686.00
 49.57     792.00
 49.67     907.00
 49.77    1078.00
 49.87    1383.00
 49.97    1694.00
 50.07    2213.88
 50.17    2404.31
 50.27    2615.00
 50.37    2373.00
 50.47    2068.00
 50.57    1660.16
 50.67    1139.00
 50.77     980.09
 50.87     719.00
 50.97     703.00
 51.07     604.36
 51.17     661.95
 51.27     564.00
 51.37     597.00
 51.47     619.62
 51.57     585.00
 51.67     580.00
 51.77     587.00
 51.87     574.39
 51.97     509.35
 52.07     552.04
 52.17     522.63
 52.27     550.00
 52.37     616.00
 52.47     556.00
 52.57     593.00
 52.67     491.00
 52.77     579.00
 52.87     591.21
 52.97     686.00
 53.07     772.00
 53.17     861.00
 53.27    1007.00
 53.37    1038.24
 53.47    1205.00
 53.57    1186.00
 53.67    1146.13
 53.77     991.00
 53.87     914.68
 53.97     813.00
 54.07     712.26
 54.17     658.82
 54.27     612.39
 54.37     567.00
 54.47     561.00
 54.57     569.00
 54.67     567.56
 54.77     532.00
 54.87     505.18
 54.97     572.00
 55.07     566.00
 55.17     522.17
 55.27     598.00
 55.37     584.00
 55.47     544.00
 55.57     534.97
 55.67     576.00
 55.77     542.00
 55.87     646.00
 55.97     622.00
 56.07     642.45
 56.17     640.00
 56.27     828.00
 56.37     973.00
 56.47    1296.49
 56.57    1666.96
 56.67    2043.00
 56.77    2300.00
 56.87    2552.00
 56.97    2648.00
 57.07    2577.62
 57.17    2174.86
 57.27    1919.00
 57.37    1394.04
 57.47    1191.00
 57.57     948.00
 57.67     739.29
 57.77     734.00
 57.87     728.00
 57.97     647.00
 58.07     662.00
 58.17     690.40
 58.27     747.00
 58.37     779.00
 58.47     989.47
 58.57    1029.24
 58.67    1208.00
 58.77    1280.66
 58.87    1453.00
 58.97    1596.00
 59.07    1650.70
 59.17    1577.00
 59.27    1436.82
 59.37    1424.00
 59.47    1287.00
 59.57    1185.00
 59.67    1157.19
 59.77    1135.00
 59.87    1197.00
 59.97    1271.00
 60.07    1409.00
 60.17    1536.00
 60.27    1642.00
 60.37    1622.00
 60.47    1510.00
 60.57    1324.00
 60.67    1127.54
 60.77     942.35
 60.87     839.43
 60.97     704.00
 61.07     666.52
 61.17     678.00
 61.27     670.00
 61.37     638.00
 61.47     674.74
 61.57     666.00
 61.67     743.00
 61.77     929.00
 61.87    1012.44
 61.97    1258.85
 62.07    1262.00
 62.17    1417.00
 62.27    1362.00
 62.37    1353.54
 62.47    1299.00
 62.57    1135.00
 62.67    1015.00
 62.77     885.56
 62.87     714.18
 62.97     639.00
 63.07     653.28
 63.17     612.00
 63.27     600.00
 63.37     542.96
 63.47     579.00
 63.57     587.00
 63.67     624.00
 63.77     599.00
 63.87     601.00
 63.97     627.00
 64.07     661.73
 64.17     786.00
 64.27     725.88
 64.37     825.00
 64.47     893.00
 64.57     983.00
 64.67    1016.89
 64.77    1046.00
 64.87     933.11
 64.97     952.00
 65.07     857.77
 65.17     829.00
 65.27     726.00
 65.37     708.00
 65.47     656.00
 65.57     625.00
 65.67     610.00
 65.77     556.00
 65.87     571.00
 65.97     613.40
 66.07     570.00
 66.17     520.27
 66.27     581.00
 66.37     495.00
 66.47     518.34
 66.57     525.00
 66.67     607.37
 66.77     609.00
 66.87     542.00
 66.97     589.07
 67.07     623.00
 67.17     685.00
 67.27     749.00
 67.37     826.00
 67.47     914.43
 67.57    1155.00
 67.67    1359.00
 67.77    1616.00
 67.87    2002.22
 67.97    2164.53
 68.07    2404.00
 68.17    2469.75
 68.27    2377.00
 68.37    2212.00
 68.47    2072.00
 68.57    1603.00
 68.67    1415.47
 68.77    1161.00
 68.87     898.00
 68.97     869.00
 69.07     702.00
 69.17     615.39
 69.27     672.00
 69.37     571.00
 69.47     610.00
 69.57     551.00
 69.67     584.91
 69.77     615.00
 69.87     606.00
 69.97     556.00
 70.07     511.80
 70.17     509.00
 70.27     536.11
 70.37     573.00
 70.47     571.00
 70.57     586.00
 70.67     544.00
 70.77     561.00
 70.87     578.00
 70.97     629.96
 71.07     595.00
 71.17     687.00
 71.27     705.00
 71.37     859.00
 71.47     993.00
 71.57    1154.29
 71.67    1356.00
 71.77    1503.00
 71.87    1635.00
 71.97    1815.00
 72.07    1904.06
 72.17    1926.00
 72.27    1871.00
 72.37    1784.00
 72.47    1642.00
 72.57    1492.00
 72.67    1286.00
 72.77    1125.00
 72.87     968.00
 72.97     942.00
 73.07     865.00
 73.17     859.22
 73.27     733.00
 73.37     677.00
 73.47     729.92
 73.57     636.00
 73.67     627.00
 73.77     624.14
 73.87     607.00
 73.97     613.00
 74.07     578.00
 74.17     554.25
 74.27     572.00
 74.37     611.84
 74.47     574.91
 74.57     654.00
 74.67     534.77
 74.77     620.00
 74.87     620.00
 74.97     665.00
 75.07     589.00
 75.17     520.33
 75.27     547.02
 75.37     537.00
 75.47     593.00
 75.57     527.15
 75.67     595.43
 75.77     555.36
 75.87     582.73
 75.97     591.00
 76.07     633.79
 76.17     602.30
 76.27     615.00
 76.37     704.00
 76.47     703.00
 76.57     742.67
 76.67     642.00
 76.77     658.77
 76.87     670.00
 76.97     701.47
 77.07     660.00
 77.17     649.26
 77.27     606.32
 77.37     557.00
 77.47     544.00
 77.57     548.08
 77.67     522.00
 77.77     547.00
 77.87     577.00
 77.97     528.00
 78.07     492.00
 78.17     537.00
 78.27     566.00
 78.37     521.00
 78.47     506.88
 78.57     528.00
 78.67     530.00
 78.77     558.00
 78.87     552.00
 78.97     555.00
 79.07     506.00
 79.17     559.93
 79.27     545.75
 79.37     513.00
 79.47     530.00
 79.57     506.00
 79.67     535.96
 79.77     497.00
 79.87     548.00
 79.97     524.00
 80.07     533.00
 80.17     517.00
 80.27     549.00
 80.37     593.10
 80.47     586.12
 80.57     586.09
 80.67     582.07
 80.77     627.00
 80.87     629.00
 80.97     663.00
 81.07     690.00
 81.17     726.00
 81.27     672.03
 81.37     771.00
 81.47     760.00
 81.57     704.77
 81.67     723.00
 81.77     739.00
 81.87     689.18
 81.97     680.00
 82.07     729.00
 82.17     642.28
 82.27     688.50
 82.37     607.00
 82.47     598.63
 82.57     621.90
 82.67     551.00
 82.77     567.00
 82.87     557.00
 82.97     521.75
 83.07     567.00
 83.17     517.11
 83.27     563.73
 83.37     523.59
 83.47     535.00
 83.57     548.00
 83.67     546.00
 83.77     536.00
 83.87     514.00
 83.97     561.00
 84.07     610.13
 84.17     563.00
 84.27     602.53
 84.37     537.29
 84.47     554.00
 84.57     519.00
 84.67     550.00
 84.77     542.00
 84.87     560.68
 84.97     526.64
 85.07     549.84
 85.17     561.58
 85.27     511.00
 85.37     530.75
 85.47     528.88
 85.57     522.00
 85.67     522.00
 85.77     518.00
 85.87     545.00
 85.97     481.00
 86.07     502.00
 86.17     497.00
 86.27     552.87
 86.37     508.00
 86.47     560.00
 86.57     545.00
 86.67     562.00
 86.77     594.00
 86.87     598.43
 86.97     633.00
 87.07     591.00
 87.17     646.00
 87.27     672.00
 87.37     664.89
 87.47     626.52
 87.57     634.00
 87.67     698.00
 87.77     668.00
 87.87     649.77
 87.97     600.00
 88.07     589.00
 88.17     560.82
 88.27     535.10
 88.37     587.00
 88.47     534.00
 88.57     528.08
 88.67     564.00
 88.77     581.00
 88.87     612.75
 88.97     612.63
 89.07     543.49
 89.17     625.96
 89.27     608.00
 89.37     585.00
 89.47     577.00
 89.57     571.00
 89.67     583.88
 89.77     538.30
 89.87     549.00
 89.97     606.84
 90.07     580.01
 90.17     598.52
 90.27     536.00
 90.37     548.00
 90.47     517.00
 90.57     502.28
 90.67     504.80
 90.77     546.90
 90.87     565.00
 90.97     496.00
 91.07     556.75
 91.17     576.00
 91.27     487.96
 91.37     537.00
 91.47     513.00
 91.57     466.00
 91.67     503.00
 91.77     563.00
 91.87     503.00
 91.97     553.00
 92.07     564.00
 92.17     562.00
 92.27     572.00
 92.37     541.28
 92.47     601.02
 92.57     666.95
 92.67     602.35
 92.77     649.00
 92.87     680.25
 92.97     683.00
 93.07     777.36
 93.17     780.00
 93.27     738.49
 93.37     832.09
 93.47     764.00
 93.57     796.00
 93.67     838.00
 93.77     867.00
 93.87     781.29
 93.97     853.05
 94.07     891.00
 94.17     839.60
 94.27     863.00
 94.37     808.51
 94.47     932.00
 94.57     858.54
 94.67     866.41
 94.77     956.52
 94.87     901.78
 94.97     903.83
 95.07     907.00
 95.17     882.12
 95.27     823.00
 95.37     799.84
 95.47     814.00
 95.57     804.60
 95.67     757.00
 95.77     679.61
 95.87     684.74
 95.97     687.00
 96.07     675.00
 96.17     682.00
 96.27     645.43
 96.37     749.00
 96.47     779.90
 96.57     833.55
 96.67     844.00
 96.77     904.00
 96.87     979.40
 96.97     949.00
 97.07    1159.87
 97.17    1266.44
 97.27    1351.00
 97.37    1340.68
 97.47    1356.20
 97.57    1469.69
 97.67    1461.69
 97.77    1427.00
 97.87    1452.48
 97.97    1330.00
 98.07    1361.91
 98.17    1268.00
 98.27    1128.00
 98.37    1081.00
 98.47    1016.09
 98.57    1000.00
 98.67     895.00
 98.77     855.00
 98.87     878.51
 98.97     729.00
 99.07     841.55
 99.17     795.00
 99.27     801.00
 99.37     869.00
 99.47     893.00
 99.57     939.51
 99.67    1150.94
 99.77    1184.11
 99.87    1297.00
 99.97    1434.01
100.07    1547.77
100.17    1586.46
100.27    1756.00
100.37    1812.76
100.47    1998.00
100.57    2025.00
100.67    2135.91
100.77    2157.00
100.87    2136.38
100.97    2145.68
101.07    1978.07
101.17    1926.00
101.27    1888.38
101.37    1858.00
101.47    1787.15
101.57    1668.00
101.67    1525.00
101.77    1540.00
101.87    1462.00
101.97    1374.00
102.07    1188.00
102.17    1171.00
102.27    1186.68
102.37    1094.00
102.47    1149.00
102.57    1163.28
102.67    1117.00
102.77    1086.02
102.87    1002.00
102.97     990.00
103.07     970.00
103.17     926.48
103.27     917.00
103.37     843.00
103.47     797.14
103.57     767.32
103.67     764.25
103.77     662.00
103.87     656.00
103.97     647.00
104.07     600.44
104.17     563.73
104.27     601.00
104.37     560.11
104.47     556.15
104.57     528.74
104.67     574.00
104.77     531.18
104.87     521.82
104.97     545.00
105.07     561.10
105.17     547.00
105.27     554.00
105.37     508.00
105.47     479.15
105.57     539.73
105.67     545.00
105.77     522.00
105.87     584.00
105.97     574.00
106.07     527.00
106.17     543.42
106.27     601.00
106.37     607.00
106.47     558.37
106.57     602.00
106.67     595.00
106.77     569.00
106.87     610.00
106.97     695.78
107.07     714.04
107.17     695.52
107.27     600.00
107.37     620.00
107.47     657.00
107.57     685.04
107.67     657.54
107.77     738.80
107.87     670.00
107.97     648.00
108.07     681.79
108.17     729.95
108.27     690.00
108.37     646.03
108.47     674.00
108.57     658.00
108.67     675.00
108.77     706.41
108.87     633.26
108.97     722.29
109.07     704.00
109.17     694.76
109.27     634.00
109.37     637.00
109.47     666.00
109.57     601.00
109.67     627.00
109.77     597.00
109.87     612.00
109.97     602.00
110.07     647.00
110.17     546.00
110.27     555.35
110.37     568.31
110.47     522.71
110.57     579.00
110.67     579.55
110.77     561.00
110.87     514.74
110.97     525.45
111.07     536.00
111.17     499.51
111.27     535.35
111.37     541.00
111.47     557.29
111.57     511.00
111.67     537.00
111.77     560.00
111.87     506.00
111.97     528.00
112.07     565.00
112.17     528.00
112.27     581.00
112.37     618.00
112.47     593.00
112.57     553.96
112.67     605.00
112.77     647.00
112.87     668.26
112.97     665.00
113.07     652.00
113.17     678.00
113.27     736.00
113.37     732.00
113.47     786.00
113.57     814.00
113.67     787.60
113.77     884.00
113.87     968.63
113.97     972.00
114.07    1026.00
114.17    1015.61
114.27    1221.00
114.37    1123.83
114.47    1258.00
114.57    1372.69
114.67    1499.00
114.77    1552.79
114.87    1777.00
114.97    1886.91
115.07    2169.00
115.17    2429.00
115.27    2478.69
115.37    2796.88
115.47    3168.00
115.57    3304.00
115.67    3904.82
115.77    3946.00
115.87    4517.00
115.97    4875.00
116.07    5298.00
116.17    5500.00
116.27    6116.00
116.37    6372.00
116.47    6887.00
116.57    6910.23
116.67    7092.00
116.77    7212.00
116.87    7208.00
116.97    6875.77
117.07    7053.00
117.17    6584.00
117.27    6338.00
117.37    5864.00
117.47    5412.00
117.57    5147.00
117.67    4775.00
117.77    4445.89
117.87    4210.00
117.97    3886.00
118.07    3345.00
118.17    3106.00
118.27    2621.55
118.37    2324.00
118.47    2114.00
118.57    1807.00
118.67    1631.35
118.77    1441.84
118.87    1278.00
118.97    1135.00
119.07     993.00
119.17     980.00
119.27     902.00
119.37     820.00
119.47     725.00
119.57     720.00
119.67     669.00
119.77     651.00
119.87     666.01
119.97     611.00
120.07     620.25
120.17     580.00
120.27     573.22
120.37     561.85
120.47     578.00
120.57     588.00
120.67     580.00
120.77     558.00
120.87     540.00
120.97     543.00
121.07     520.85
121.17     514.00
121.27     566.00
121.37     539.00
121.47     594.00
121.57     587.37
121.67     551.00
121.77     567.96
121.87     606.00
121.97     618.00
122.07     584.80
122.17     591.05
122.27     611.00
122.37     588.00
122.47     600.00
122.57     638.00
122.67     615.00
122.77     661.00
122.87     596.45
122.97     612.00
123.07     634.28
123.17     655.07
123.27     603.00
123.37     662.00
123.47     598.82
123.57     613.72
123.67     644.00
123.77     601.00
123.87     634.00
123.97     618.00
124.07     593.40
124.17     624.86
124.27     609.00
124.37     610.04
124.47     610.00
124.57     634.00
124.67     539.69
124.77     550.00
124.87     595.00
124.97     582.00
