  9.97     617.00
 10.07     579.00
 10.17     603.17
 10.27     593.00
 10.37     541.98
 10.47     576.00
 10.57     614.65
 10.67     584.00
 10.77     532.00
 10.87     586.00
 10.97     571.00
 11.07     537.23
 11.17     562.00
 11.27     597.00
 11.37     529.05
 11.47     597.00
 11.57     557.35
 11.67     632.00
 11.77     656.00
 11.87     659.00
 11.97     625.72
 12.07     646.00
 12.17     702.00
 12.27     660.00
 12.37     721.45
 12.47     583.00
 12.57     637.00
 12.67     567.88
 12.77     568.00
 12.87     580.72
 12.97     588.00
 13.07     537.00
 13.17     517.00
 13.27     545.52
 13.37     562.00
 13.47     548.00
 13.57     555.00
 13.67     554.00
 13.77     612.42
 13.87     607.00
 13.97     569.00
 14.07     552.00
 14.17     600.00
 14.27     583.00
 14.37     605.03
 14.47     532.00
 14.57     575.59
 14.67     535.00
 14.77     583.17
 14.87     553.00
 14.97     550.00
 15.07     561.29
 15.17     538.00
 15.27     539.07
 15.37     561.70
 15.47     536.00
 15.57     560.00
 15.67     544.00
 15.77     555.00
 15.87     607.00
 15.97     533.00
 16.07     539.00
 16.17     559.00
 16.27     580.00
 16.37     568.00
 16.47     580.41
 16.57     608.56
 16.67     604.00
 16.77     573.00
 16.87     538.00
 16.97     536.77
 17.07     598.91
 17.17     580.53
 17.27     563.00
 17.37     524.46
 17.47     525.58
 17.57     539.19
 17.67     555.00
 17.77     578.00
 17.87     553.00
 17.97     586.00
 18.07     539.00
 18.17     544.10
 18.27     560.00
 18.37     556.00
 18.47     542.00
 18.57     545.99
 18.67     550.91
 18.77     599.48
 18.87     528.00
 18.97     556.66
 19.07     576.99
 19.17     591.98
 19.27     538.00
 19.37     545.00
 19.47     592.96
 19.57     574.00
 19.67     557.88
 19.77     549.00
 19.87     563.71
 19.97     586.72
 20.07     557.17
 20.17     586.85
 20.27     546.00
 20.37     589.79
 20.47     593.53
 20.57     546.00
 20.67     593.67
 20.77     579.00
 20.87     545.00
 20.97     520.82
 21.07     531.00
 21.17     554.00
 21.27     570.00
 21.37     547.85
 21.47     560.47
 21.57     587.00
 21.67     531.00
 21.77     529.56
 21.87     530.95
 21.97     487.00
 22.07     514.15
 22.17     549.45
 22.27     522.00
 22.37     527.36
 22.47     523.00
 22.57     545.97
 22.67     552.00
 22.77     589.83
 22.87     545.82
 22.97     552.00
 23.07     543.00
 23.17     548.00
 23.27     537.00
 23.37     569.75
 23.47     569.00
 23.57     518.00
 23.67     569.32
 23.77     592.00
 23.87     539.00
 23.97     512.00
 24.07     539.00
 24.17     568.00
 24.27     586.00
 24.37     542.00
 24.47     575.66
 24.57     579.26
 24.67     584.03
 24.77     646.39
 24.87     583.00
 24.97     597.00
 25.07     641.00
 25.17     571.90
 25.27     553.00
 25.37     565.63
 25.47     550.00
 25.57     536.00
 25.67     555.00
 25.77     559.71
 25.87     603.00
 25.97     550.00
 26.07     613.00
 26.17     568.00
 26.27     553.19
 26.37     508.01
 26.47     579.17
 26.57     583.00
 26.67     545.45
 26.77     577.00
 26.87     506.62
 26.97     561.00
 27.07     541.91
 27.17     539.00
 27.27     573.00
 27.37     586.00
 27.47     501.95
 27.57     536.64
 27.67     590.00
 27.77     561.00
 27.87     588.00
 27.97     641.00
 28.07     736.00
 28.17     933.06
 28.27     995.31
 28.37     904.94
 28.47     793.00
 28.57     672.00
 28.67     715.00
 28.77     697.53
 28.87     804.57
 28.97     765.00
 29.07     784.00
 29.17     699.00
 29.27     640.00
 29.37     612.00
 29.47     629.85
 29.57     640.00
 29.67     606.00
 29.77     599.00
 29.87     571.00
 29.97     547.00
 30.07     540.76
 30.17     530.00
 30.27     571.57
 30.37     517.96
 30.47     569.00
 30.57     570.00
 30.67     597.00
 30.77     554.99
 30.87     591.00
 30.97     645.02
 31.07     617.00
 31.17     565.00
 31.27     572.00
 31.37     570.15
 31.47     535.00
 31.57     549.00
 31.67     532.00
 31.77     541.00
 31.87     508.00
 31.97     540.00
 32.07     559.00
 32.17     539.25
 32.27     545.00
 32.37     549.74
 32.47     533.00
 32.57     528.00
 32.67     520.00
 32.77     595.00
 32.87     548.10
 32.97     568.77
 33.07     551.00
 33.17     494.26
 33.27     580.00
 33.37     577.00
 33.47     538.66
 33.57     586.65
 33.67     635.00
 33.77     780.00
 33.87     842.00
 33.97    1061.00
 34.07    1042.73
 34.17     995.00
 34.27     841.30
 34.37     776.00
 34.47     615.22
 34.57     552.03
 34.67     538.50
 34.77     546.00
 34.87     553.00
 34.97     563.01
 35.07     563.00
 35.17     513.00
 35.27     512.00
 35.37     549.00
 35.47     520.00
 35.57     522.00
 35.67     560.00
 35.77     514.00
 35.87     495.60
 35.97     496.00
 36.07     511.00
 36.17     537.00
 36.27     506.00
 36.37     509.00
 36.47     483.00
 36.57     514.99
 36.67     536.00
 36.77     534.00
 36.87     502.50
 36.97     528.00
 37.07     534.46
 37.17     493.30
 37.27     539.00
 37.37     536.44
 37.47     516.00
 37.57     503.00
 37.67     564.00
 37.77     520.00
 37.87     529.55
 37.97     507.00
 38.07     500.00
 38.17     500.00
 38.27     507.00
 38.37     497.00
 38.47     468.93
 38.57     519.00
 38.67     497.00
 38.77     480.00
 38.87     525.00
 38.97     481.00
 39.07     509.00
 39.17     513.00
 39.27     478.00
 39.37     451.00
 39.47     497.00
 39.57     519.00
 39.67     524.00
 39.77     509.70
 39.87     515.00
 39.97     509.00
 40.07     508.00
 40.17     485.28
 40.27     538.00
 40.37     504.00
 40.47     473.32
 40.57     498.00
 40.67     499.06
 40.77     467.00
 40.87     498.59
 40.97     473.07
 41.07     477.00
 41.17     520.00
 41.27     528.00
 41.37     459.00
 41.47     465.00
 41.57     507.00
 41.67     473.00
 41.77     499.00
 41.87     458.00
 41.97     535.79
 42.07     526.00
 42.17     513.90
 42.27     560.00
 42.37     517.00
 42.47     582.00
 42.57     601.04
 42.67     628.74
 42.77     623.00
 42.87     584.00
 42.97     513.00
 43.07     566.64
 43.17     512.26
 43.27     485.96
 43.37     476.75
 43.47     497.00
 43.57     547.30
 43.67     525.86
 43.77     544.72
 43.87     526.00
 43.97     483.11
 44.07     496.00
 44.17     515.00
 44.27     521.00
 44.37     463.29
 44.47     480.00
 44.57     511.23
 44.67     500.00
 44.77     505.00
 44.87     514.00
 44.97     466.51
 45.07     511.37
 45.17     487.92
 45.27     518.79
 45.37     555.00
 45.47     523.00
 45.57     482.00
 45.67     498.00
 45.77     479.96
 45.87     500.00
 45.97     472.00
 46.07     519.00
 46.17     502.36
 46.27     494.00
 46.37     507.79
 46.47     476.44
 46.57     486.00
 46.67     490.00
 46.77     524.00
 46.87     481.00
 46.97     495.38
 47.07     497.00
 47.17     527.00
 47.27     527.00
 47.37     498.00
 47.47     570.14
 47.57     575.00
 47.67     584.00
 47.77     567.00
 47.87     580.00
 47.97     583.00
 48.07     558.67
 48.17     543.95
 48.27     574.00
 48.37     498.00
 48.47     551.79
 48.57     552.00
 48.67     518.00
 48.77     515.00
 48.87     504.35
 48.97     536.73
 49.07     579.00
 49.17     549.00
 49.27     649.00
 49.37     653.00
 49.47     707.00
 49.57     829.91
 49.67     931.55
 49.77    1169.07
 49.87    1432.00
 49.97    1900.00
 50.07    2245.00
 50.17    2463.00
 50.27    2526.00
 50.37    2313.00
 50.47    1905.00
 50.57    1501.21
 50.67    1050.00
 50.77     865.00
 50.87     700.00
 50.97     614.00
 51.07     655.00
 51.17     612.24
 51.27     622.26
 51.37     608.00
 51.47     563.93
 51.57     599.06
 51.67     585.95
 51.77     578.00
 51.87     501.76
 51.97     542.00
 52.07     599.00
 52.17     520.68
 52.27     576.92
 52.37     521.00
 52.47     495.95
 52.57     581.00
 52.67     514.58
 52.77     592.00
 52.87     659.00
 52.97     707.94
 53.07     794.00
 53.17     979.00
 53.27    1087.00
 53.37    1121.00
 53.47    1205.00
 53.57    1153.49
 53.67    1128.88
 53.77     986.00
 53.87     872.80
 53.97     709.00
 54.07     666.00
 54.17     586.00
 54.27     555.57
 54.37     584.00
 54.47     532.41
 54.57     586.37
 54.67     502.77
 54.77     497.90
 54.87     543.00
 54.97     563.00
 55.07     512.00
 55.17     514.00
 55.27     505.76
 55.37     586.00
 55.47     525.00
 55.57     549.00
 55.67     534.09
 55.77     528.13
 55.87     570.45
 55.97     574.00
 56.07     689.36
 56.17     732.09
 56.27     876.00
 56.37    1057.00
 56.47    1361.00
 56.57    1810.19
 56.67    2204.00
 56.77    2487.00
 56.87    2596.00
 56.97    2623.00
 57.07    2443.00
 57.17    2047.00
 57.27    1719.00
 57.37    1299.00
 57.47    1007.33
 57.57     866.86
 57.67     756.44
 57.77     702.00
 57.87     663.96
 57.97     619.50
 58.07     650.42
 58.17     712.00
 58.27     725.85
 58.37     823.00
 58.47     993.96
 58.57    1123.79
 58.67    1292.00
 58.77    1407.00
 58.87    1545.00
 58.97    1503.09
 59.07    1640.79
 59.17    1584.00
 59.27    1475.00
 59.37    1302.14
 59.47    1312.67
 59.57    1144.09
 59.67    1170.00
 59.77    1135.86
 59.87    1181.00
 59.97    1277.40
 60.07    1464.00
 60.17    1512.00
 60.27    1567.77
 60.37    1569.20
 60.47    1383.00
 60.57    1253.00
 60.67    1115.00
 60.77     950.00
 60.87     779.00
 60.97     706.00
 61.07     677.00
 61.17     672.66
 61.27     636.00
 61.37     625.77
 61.47     687.06
 61.57     657.00
 61.67     803.00
 61.77    1000.76
 61.87    1118.00
 61.97    1259.73
 62.07    1361.02
 62.17    1472.22
 62.27    1407.00
 62.37    1298.80
 62.47    1155.00
 62.57    1070.00
 62.67     920.22
 62.77     761.00
 62.87     680.21
 62.97     619.00
 63.07     631.72
 63.17     604.00
 63.27     571.00
 63.37     549.00
 63.47     599.45
 63.57     581.49
 63.67     617.00
 63.77     578.00
 63.87     610.00
 63.97     650.00
 64.07     711.00
 64.17     736.29
 64.27     841.00
 64.37     901.00
 64.47     894.66
 64.57    1038.00
 64.67    1084.00
 64.77    1023.00
 64.87    1015.00
 64.97     889.03
 65.07     840.00
 65.17     796.00
 65.27     746.00
 65.37     710.58
 65.47     698.67
 65.57     670.74
 65.67     640.85
 65.77     584.00
 65.87     566.00
 65.97     606.11
 66.07     553.00
 66.17     572.44
 66.27     576.00
 66.37     586.95
 66.47     551.00
 66.57     609.00
 66.67     529.00
 66.77     547.54
 66.87     600.94
 66.97     620.72
 67.07     595.00
 67.17     632.26
 67.27     746.00
 67.37     890.34
 67.47    1047.51
 67.57    1259.00
 67.67    1523.00
 67.77    1789.00
 67.87    1987.00
 67.97    2313.00
 68.07    2345.00
 68.17    2396.00
 68.27    2405.00
 68.37    2128.00
 68.47    1822.21
 68.57    1519.28
 68.67    1307.00
 68.77    1002.00
 68.87     898.68
 68.97     757.01
 69.07     702.98
 69.17     595.03
 69.27     590.99
 69.37     550.95
 69.47     624.18
 69.57     615.00
 69.67     530.85
 69.77     587.00
 69.87     557.00
 69.97     601.00
 70.07     562.86
 70.17     533.00
 70.27     569.33
 70.37     567.00
 70.47     620.00
 70.57     610.26
 70.67     577.71
 70.77     602.27
 70.87     631.55
 70.97     608.00
 71.07     616.00
 71.17     671.00
 71.27     765.00
 71.37     860.91
 71.47    1050.00
 71.57    1259.00
 71.67    1393.00
 71.77    1581.00
 71.87    1826.00
 71.97    1975.00
 72.07    1983.00
 72.17    1923.00
 72.27    1775.00
 72.37    1736.00
 72.47    1530.00
 72.57    1344.00
 72.67    1191.45
 72.77    1131.80
 72.87    1052.00
 72.97     908.00
 73.07     842.21
 73.17     844.27
 73.27     705.00
 73.37     669.00
 73.47     649.00
 73.57     600.00
 73.67     631.36
 73.77     602.00
 73.87     612.17
 73.97     616.00
 74.07     599.00
 74.17     618.00
 74.27     602.00
 74.37     628.00
 74.47     577.37
 74.57     586.00
 74.67     633.00
 74.77     522.76
 74.87     516.47
 74.97     624.00
 75.07     564.00
 75.17     578.65
 75.27     558.00
 75.37     561.00
 75.47     537.00
 75.57     541.81
 75.67     608.00
 75.77     591.18
 75.87     571.00
 75.97     565.71
 76.07     591.00
 76.17     640.98
 76.27     654.26
 76.37     723.83
 76.47     679.00
 76.57     661.00
 76.67     682.57
 76.77     681.67
 76.87     708.00
 76.97     623.25
 77.07     598.46
 77.17     605.46
 77.27     527.00
 77.37     549.00
 77.47     567.00
 77.57     573.21
 77.67     561.65
 77.77     547.00
 77.87     531.00
 77.97     515.00
 78.07     542.00
 78.17     564.37
 78.27     490.00
 78.37     501.00
 78.47     547.67
 78.57     558.00
 78.67     485.27
 78.77     545.00
 78.87     539.63
 78.97     525.65
 79.07     477.00
 79.17     510.27
 79.27     540.92
 79.37     528.00
 79.47     565.00
 79.57     538.00
 79.67     534.00
 79.77     516.00
 79.87     570.88
 79.97     566.32
 80.07     592.00
 80.17     585.16
 80.27     544.00
 80.37     517.00
 80.47     602.00
 80.57     546.00
 80.67     635.00
 80.77     606.00
 80.87     654.00
 80.97     736.00
 81.07     744.00
 81.17     688.77
 81.27     783.00
 81.37     748.00
 81.47     761.70
 81.57     789.00
 81.67     711.00
 81.77     750.79
 81.87     717.00
 81.97     728.91
 82.07     684.00
 82.17     681.00
 82.27     668.00
 82.37     622.43
 82.47     610.29
 82.57     602.00
 82.67     539.22
 82.77     598.00
 82.87     525.77
 82.97     544.29
 83.07     591.18
 83.17     599.00
 83.27     558.00
 83.37     548.00
 83.47     564.00
 83.57     549.08
 83.67     560.92
 83.77     562.00
 83.87     552.00
 83.97     562.00
 84.07     583.00
 84.17     571.00
 84.27     556.00
 84.37     571.34
 84.47     573.92
 84.57     525.00
 84.67     510.00
 84.77     587.00
 84.87     526.00
 84.97     541.00
 85.07     555.01
 85.17     570.79
 85.27     530.00
 85.37     508.08
 85.47     560.00
 85.57     527.20
 85.67     550.00
 85.77     545.00
 85.87     498.28
 85.97     534.00
 86.07     518.00
 86.17     556.00
 86.27     502.00
 86.37     555.00
 86.47     552.88
 86.57     562.00
 86.67     535.26
 86.77     603.00
 86.87     593.00
 86.97     592.60
 87.07     640.33
 87.17     626.74
 87.27     594.41
 87.37     641.00
 87.47     640.87
 87.57     611.00
 87.67     626.00
 87.77     592.00
 87.87     642.00
 87.97     589.10
 88.07     629.00
 88.17     604.96
 88.27     588.00
 88.37     614.00
 88.47     532.00
 88.57     627.00
 88.67     596.47
 88.77     603.42
 88.87     559.60
 88.97     616.00
 89.07     561.61
 89.17     636.92
 89.27     595.00
 89.37     638.00
 89.47     605.00
 89.57     549.00
 89.67     589.00
 89.77     596.00
 89.87     559.00
 89.97     598.21
 90.07     553.00
 90.17     518.00
 90.27     529.00
 90.37     574.71
 90.47     540.00
 90.57     519.00
 90.67     540.72
 90.77     543.00
 90.87     555.78
 90.97     513.00
 91.07     504.00
 91.17     504.00
 91.27     539.00
 91.37     530.00
 91.47     542.52
 91.57     521.00
 91.67     498.00
 91.77     529.36
 91.87     563.20
 91.97     553.11
 92.07     585.00
 92.17     566.00
 92.27     602.00
 92.37     576.00
 92.47     572.00
 92.57     590.60
 92.67     626.25
 92.77     692.00
 92.87     746.00
 92.97     681.00
 93.07     718.81
 93.17     787.48
 93.27     793.00
 93.37     822.00
 93.47     763.27
 93.57     781.00
 93.67     764.00
 93.77     873.21
 93.87     866.00
 93.97     867.00
 94.07     828.68
 94.17     877.00
 94.27     897.00
 94.37     875.22
 94.47     863.00
 94.57     899.00
 94.67     943.73
 94.77     907.00
 94.87     929.00
 94.97     877.00
 95.07     960.00
 95.17     833.00
 95.27     882.00
 95.37     765.79
 95.47     802.00
 95.57     705.00
 95.67     734.59
 95.77     695.81
 95.87     647.10
 95.97     655.00
 96.07     647.00
 96.17     663.83
 96.27     701.00
 96.37     724.00
 96.47     774.46
 96.57     846.33
 96.67     954.08
 96.77     942.00
 96.87    1062.00
 96.97    1082.97
 97.07    1205.71
 97.17    1329.04
 97.27    1381.00
 97.37    1410.32
 97.47    1406.00
 97.57    1376.45
 97.67    1399.85
 97.77    1436.00
 97.87    1373.00
 97.97    1271.00
 98.07    1165.00
 98.17    1147.00
 98.27    1118.00
 98.37    1024.00
 98.47     959.78
 98.57     914.24
 98.67     878.00
 98.77     817.00
 98.87     808.00
 98.97     813.30
 99.07     788.00
 99.17     856.00
 99.27     900.01
 99.37     923.00
 99.47    1017.00
 99.57    1068.00
 99.67    1196.00
 99.77    1189.00
 99.87    1403.00
 99.97    1583.00
100.07    1679.00
100.17    1705.00
100.27    1857.00
100.37    1815.00
100.47    2033.00
100.57    2033.25
100.67    2137.00
100.77    2044.01
100.87    2047.67
100.97    1991.38
101.07    1942.00
101.17    1989.00
101.27    1796.88
101.37    1815.01
101.47    1617.00
101.57    1551.00
101.67    1488.00
101.77    1308.00
101.87    1330.00
101.97    1302.14
102.07    1274.04
102.17    1169.00
102.27    1149.00
102.37    1150.00
102.47    1073.00
102.57    1044.40
102.67    1053.00
102.77    1091.33
102.87     948.00
102.97     946.00
103.07     904.72
103.17     878.00
103.27     828.00
103.37     806.00
103.47     767.00
103.57     764.00
103.67     644.00
103.77     654.07
103.87     606.79
103.97     636.36
104.07     583.00
104.17     616.94
104.27     583.00
104.37     541.00
104.47     534.05
104.57     521.00
104.67     506.38
104.77     560.00
104.87     585.00
104.97     541.00
105.07     513.12
105.17     547.00
105.27     549.00
105.37     524.60
105.47     542.00
105.57     562.00
105.67     592.00
105.77     532.00
105.87     529.97
105.97     592.72
106.07     542.70
106.17     588.00
106.27     549.78
106.37     566.33
106.47     615.00
106.57     664.52
106.67     639.68
106.77     615.00
106.87     632.00
106.97     720.33
107.07     660.00
107.17     666.00
107.27     702.41
107.37     713.60
107.47     671.25
107.57     697.00
107.67     695.00
107.77     688.06
107.87     724.00
107.97     711.10
108.07     704.00
108.17     691.00
108.27     686.13
108.37     632.00
108.47     645.00
108.57     669.00
108.67     693.00
108.77     676.00
108.87     686.00
108.97     705.34
109.07     646.88
109.17     705.00
109.27     677.00
109.37     692.77
109.47     662.00
109.57     656.00
109.67     624.00
109.77     597.00
109.87     615.00
109.97     618.55
110.07     545.00
110.17     615.12
110.27     540.00
110.37     583.00
110.47     592.00
110.57     520.64
110.67     583.96
110.77     559.00
110.87     569.00
110.97     525.37
111.07     496.00
111.17     533.29
111.27     553.00
111.37     556.37
111.47     572.00
111.57     562.47
111.67     552.00
111.77     580.00
111.87     562.79
111.97     586.00
112.07     526.00
112.17     555.00
112.27     566.44
112.37     555.00
112.47     555.47
112.57     624.00
112.67     638.00
112.77     638.00
112.87     675.00
112.97     671.00
113.07     686.00
113.17     720.00
113.27     733.34
113.37     777.00
113.47     810.04
113.57     790.47
113.67     892.92
113.77     938.01
113.87     975.00
113.97    1042.98
114.07    1034.00
114.17    1097.39
114.27    1127.80
114.37    1292.72
114.47    1424.00
114.57    1384.83
114.67    1612.00
114.77    1752.00
114.87    2014.00
114.97    2082.00
115.07    2416.00
115.17    2484.00
115.27    2775.39
115.37    3129.00
115.47    3439.00
115.57    3708.00
115.67    4112.00
115.77    4392.92
115.87    4734.00
115.97    5138.00
116.07    5497.00
116.17    6117.07
116.27    6237.00
116.37    6608.00
116.47    6880.73
116.57    7030.00
116.67    7097.00
116.77    6903.91
116.87    7091.00
116.97    6706.00
117.07    6370.65
117.17    6146.00
117.27    5997.11
117.37    5428.00
117.47    4995.00
117.57    4790.18
117.67    4475.00
117.77    4114.00
117.87    3585.24
117.97    3355.00
118.07    2995.00
118.17    2613.81
118.27    2209.00
118.37    1997.00
118.47    1858.29
118.57    1515.00
118.67    1420.00
118.77    1216.00
118.87    1085.00
118.97    1002.00
119.07     942.17
119.17     911.00
119.27     885.00
119.37     826.64
119.47     729.00
119.57     691.61
119.67     679.00
119.77     660.40
119.87     603.44
119.97     630.00
120.07     593.48
120.17     607.00
120.27     562.00
120.37     570.00
120.47     560.00
120.57     590.00
120.67     557.00
120.77     564.37
120.87     604.04
120.97     529.26
121.07     586.00
121.17     611.17
121.27     549.00
121.37     600.94
121.47     581.00
121.57     588.00
121.67     569.60
121.77     593.00
121.87     542.00
121.97     575.51
122.07     598.00
122.17     612.86
122.27     663.00
122.37     622.05
122.47     696.00
122.57     660.00
122.67     675.00
122.77     654.00
122.87     603.00
122.97     662.00
123.07     689.00
123.17     652.00
123.27     647.82
123.37     614.00
123.47     619.16
123.57     640.00
123.67     599.83
123.77     628.00
123.87     656.00
123.97     650.04
124.07     641.00
124.17     634.00
124.27     615.00
124.37     602.00
124.47     588.00
124.57     509.00
124.67     631.54
124.77     677.00
124.87     605.00
124.97     570.00
