  9.97     583.00
 10.07     524.74
 10.17     624.00
 10.27     597.00
 10.37     590.00
 10.47     652.00
 10.57     562.00
 10.67     602.00
 10.77     550.00
 10.87     584.00
 10.97     555.00
 11.07     565.00
 11.17     529.00
 11.27     552.00
 11.37     596.00
 11.47     588.48
 11.57     570.00
 11.67     565.00
 11.77     596.00
 11.87     630.00
 11.97     568.57
 12.07     645.00
 12.17     690.00
 12.27     706.91
 12.37     638.81
 12.47     647.27
 12.57     547.00
 12.67     603.00
 12.77     551.00
 12.87     597.86
 12.97     533.90
 13.07     541.00
 13.17     577.10
 13.27     537.86
 13.37     537.00
 13.47     515.00
 13.57     528.00
 13.67     597.13
 13.77     571.00
 13.87     607.00
 13.97     544.00
 14.07     526.00
 14.17     576.00
 14.27     584.99
 14.37     562.00
 14.47     517.00
 14.57     544.00
 14.67     519.37
 14.77     527.00
 14.87     586.00
 14.97     512.00
 15.07     582.08
 15.17     557.00
 15.27     520.00
 15.37     548.00
 15.47     540.00
 15.57     552.44
 15.67     573.00
 15.77     529.34
 15.87     549.00
 15.97     571.00
 16.07     556.58
 16.17     517.57
 16.27     559.00
 16.37     534.00
 16.47     592.78
 16.57     568.73
 16.67     593.84
 16.77     516.00
 16.87     596.00
 16.97     560.04
 17.07     506.00
 17.17     568.00
 17.27     577.50
 17.37     571.00
 17.47     593.42
 17.57     543.00
 17.67     525.30
 17.77     596.92
 17.87     529.00
 17.97     559.00
 18.07     540.44
 18.17     532.00
 18.27     602.57
 18.37     572.00
 18.47     512.00
 18.57     588.91
 18.67     566.00
 18.77     580.79
 18.87     511.00
 18.97     534.07
 19.07     554.00
 19.17     571.27
 19.27     569.00
 19.37     546.62
 19.47     524.04
 19.57     526.81
 19.67     522.00
 19.77     555.83
 19.87     544.73
 19.97     545.00
 20.07     546.25
 20.17     586.00
 20.27     582.53
 20.37     579.00
 20.47     563.00
 20.57     560.66
 20.67     582.80
 20.77     547.00
 20.87     521.63
 20.97     595.12
 21.07     561.00
 21.17     581.00
 21.27     530.00
 21.37     557.00
 21.47     564.00
 21.57     545.00
 21.67     551.67
 21.77     540.00
 21.87     519.00
 21.97     537.00
 22.07     516.68
 22.17     507.74
 22.27     549.36
 22.37     544.00
 22.47     506.00
 22.57     506.81
 22.67     541.00
 22.77     522.00
 22.87     563.05
 22.97     509.00
 23.07     595.00
 23.17     535.00
 23.27     544.44
 23.37     566.00
 23.47     538.00
 23.57     532.00
 23.67     545.44
 23.77     560.00
 23.87     557.69
 23.97     521.00
 24.07     570.00
 24.17     586.64
 24.27     605.00
 24.37     580.00
 24.47     590.00
 24.57     596.11
 24.67     610.27
 24.77     618.00
 24.87     639.00
 24.97     599.00
 25.07     603.00
 25.17     598.00
 25.27     608.10
 25.37     613.00
 25.47     561.00
 25.57     570.00
 25.67     600.00
 25.77     585.00
 25.87     559.00
 25.97     518.60
 26.07     546.30
 26.17     531.26
 26.27     505.49
 26.37     565.00
 26.47     515.52
 26.57     572.62
 26.67     521.27
 26.77     546.00
 26.87     527.68
 26.97     524.37
 27.07     607.00
 27.17     529.00
 27.27     586.00
 27.37     598.00
 27.47     522.74
 27.57     569.00
 27.67     547.69
 27.77     521.22
 27.87     576.00
 27.97     669.50
 28.07     706.85
 28.17     893.00
 28.27     880.29
 28.37     912.62
 28.47     811.00
 28.57     790.00
 28.67     733.00
 28.77     761.64
 28.87     743.00
 28.97     832.00
 29.07     788.51
 29.17     717.22
 29.27     709.00
 29.37     666.00
 29.47     604.09
 29.57     565.36
 29.67     586.65
 29.77     626.00
 29.87     557.83
 29.97     504.12
 30.07     597.00
 30.17     530.00
 30.27     504.46
 30.37     565.12
 30.47     559.00
 30.57     592.00
 30.67     558.00
 30.77     646.00
 30.87     557.32
 30.97     584.96
 31.07     651.00
 31.17     629.00
 31.27     610.00
 31.37     573.00
 31.47     532.00
 31.57     602.00
 31.67     595.00
 31.77     572.88
 31.87     573.00
 31.97     500.02
 32.07     558.00
 32.17     531.00
 32.27     547.00
 32.37     579.00
 32.47     558.00
 32.57     556.00
 32.67     505.00
 32.77     526.92
 32.87     577.00
 32.97     567.00
 33.07     563.03
 33.17     550.00
 33.27     541.59
 33.37     594.00
 33.47     575.90
 33.57     564.00
 33.67     578.65
 33.77     700.00
 33.87     785.00
 33.97     933.43
 34.07     950.00
 34.17    1025.00
 34.27     967.00
 34.37     836.00
 34.47     689.00
 34.57     641.00
 34.67     594.00
 34.77     557.56
 34.87     566.00
 34.97     565.00
 35.07     508.00
 35.17     485.00
 35.27     541.29
 35.37     513.56
 35.47     558.29
 35.57     504.00
 35.67     477.00
 35.77     517.00
 35.87     513.00
 35.97     490.19
 36.07     491.00
 36.17     475.70
 36.27     503.63
 36.37     502.00
 36.47     514.00
 36.57     513.00
 36.67     514.01
 36.77     505.51
 36.87     474.00
 36.97     514.74
 37.07     448.00
 37.17     491.00
 37.27     464.00
 37.37     475.00
 37.47     542.00
 37.57     489.00
 37.67     547.00
 37.77     532.02
 37.87     546.00
 37.97     502.00
 38.07     472.84
 38.17     501.00
 38.27     516.00
 38.37     498.06
 38.47     463.58
 38.57     528.00
 38.67     457.00
 38.77     481.00
 38.87     507.00
 38.97     450.00
 39.07     493.00
 39.17     470.00
 39.27     482.00
 39.37     499.00
 39.47     467.66
 39.57     496.00
 39.67     448.00
 39.77     501.00
 39.87     466.06
 39.97     473.00
 40.07     465.44
 40.17     488.00
 40.27     442.00
 40.37     475.00
 40.47     491.00
 40.57     506.00
 40.67     466.07
 40.77     478.00
 40.87     460.49
 40.97     492.04
 41.07     456.00
 41.17     501.96
 41.27     476.94
 41.37     512.91
 41.47     485.41
 41.57     485.00
 41.67     483.00
 41.77     520.54
 41.87     470.00
 41.97     484.00
 42.07     461.00
 42.17     470.00
 42.27     543.00
 42.37     594.00
 42.47     545.00
 42.57     540.00
 42.67     585.00
 42.77     581.00
 42.87     573.00
 42.97     592.00
 43.07     534.00
 43.17     552.67
 43.27     495.00
 43.37     461.00
 43.47     527.72
 43.57     494.00
 43.67     511.00
 43.77     472.71
 43.87     486.29
 43.97     506.00
 44.07     500.56
 44.17     485.00
 44.27     451.41
 44.37     487.00
 44.47     533.29
 44.57     476.82
 44.67     503.00
 44.77     505.00
 44.87     459.68
 44.97     463.00
 45.07     491.00
 45.17     495.00
 45.27     510.00
 45.37     519.00
 45.47     507.00
 45.57     484.00
 45.67     543.00
 45.77     446.08
 45.87     490.00
 45.97     501.60
 46.07     456.10
 46.17     496.00
 46.27     513.29
 46.37     510.00
 46.47     531.38
 46.57     453.18
 46.67     499.00
 46.77     460.82
 46.87     507.00
 46.97     456.80
 47.07     481.00
 47.17     531.66
 47.27     466.32
 47.37     550.12
 47.47     539.09
 47.57     545.52
 47.67     560.82
 47.77     562.00
 47.87     587.00
 47.97     611.00
 48.07     586.00
 48.17     553.26
 48.27     554.00
 48.37     538.00
 48.47     560.00
 48.57     492.00
 48.67     547.25
 48.77     493.42
 48.87     552.00
 48.97     568.53
 49.07     539.00
 49.17     540.00
 49.27     602.07
 49.37     541.88
 49.47     572.80
 49.57     657.00
 49.67     711.00
 49.77     870.87
 49.87    1139.00
 49.97    1452.00
 50.07    1719.00
 50.17    2127.00
 50.27    2232.00
 50.37    2328.00
 50.47    2140.00
 50.57    1836.85
 50.67    1392.00
 50.77    1085.00
 50.87     880.84
 50.97     787.00
 51.07     736.00
 51.17     645.00
 51.27     640.00
 51.37     626.00
 51.47     581.00
 51.57     601.00
 51.67     600.00
 51.77     544.92
 51.87     522.09
 51.97     586.00
 52.07     495.85
 52.17     573.00
 52.27     564.67
 52.37     573.00
 52.47     528.00
 52.57     562.89
 52.67     584.70
 52.77     590.00
 52.87     546.00
 52.97     619.62
 53.07     715.89
 53.17     797.95
 53.27     931.00
 53.37    1036.46
 53.47    1132.24
 53.57    1161.00
 53.67    1241.00
 53.77    1049.00
 53.87    1014.78
 53.97     892.86
 54.07     835.43
 54.17     696.32
 54.27     722.00
 54.37     590.03
 54.47     625.00
 54.57     571.00
 54.67     549.89
 54.77     558.00
 54.87     566.00
 54.97     532.85
 55.07     563.00
 55.17     590.00
 55.27     574.00
 55.37     561.90
 55.47     556.35
 55.57     551.00
 55.67     571.00
 55.77     530.00
 55.87     586.00
 55.97     687.00
 56.07     682.00
 56.17     707.00
 56.27     812.91
 56.37     967.00
 56.47    1188.82
 56.57    1454.00
 56.67    1704.29
 56.77    2110.05
 56.87    2384.67
 56.97    2569.14
 57.07    2527.00
 57.17    2282.84
 57.27    2111.09
 57.37    1716.00
 57.47    1433.70
 57.57    1126.00
 57.67     949.04
 57.77     839.00
 57.87     732.81
 57.97     739.00
 58.07     727.95
 58.17     760.00
 58.27     734.00
 58.37     726.00
 58.47     775.00
 58.57     870.00
 58.67     885.00
 58.77    1032.18
 58.87    1124.00
 58.97    1164.97
 59.07    1309.00
 59.17    1302.00
 59.27    1363.00
 59.37    1291.00
 59.47    1277.00
 59.57    1282.00
 59.67    1161.25
 59.77    1143.68
 59.87    1148.00
 59.97    1256.00
 60.07    1327.00
 60.17    1461.66
 60.27    1530.00
 60.37    1536.00
 60.47    1547.44
 60.57    1418.19
 60.67    1327.71
 60.77    1053.63
 60.87     991.00
 60.97     881.36
 61.07     794.00
 61.17     689.98
 61.27     657.26
 61.37     673.00
 61.47     670.00
 61.57     693.00
 61.67     745.97
 61.77     811.14
 61.87     953.00
 61.97    1007.00
 62.07    1164.00
 62.17    1258.00
 62.27    1361.16
 62.37    1314.23
 62.47    1324.91
 62.57    1151.11
 62.67     977.00
 62.77     921.00
 62.87     755.00
 62.97     743.76
 63.07     681.00
 63.17     592.83
 63.27     586.00
 63.37     576.00
 63.47     580.00
 63.57     601.90
 63.67     585.00
 63.77     594.00
 63.87     589.00
 63.97     615.00
 64.07     628.77
 64.17     689.00
 64.27     780.57
 64.37     787.00
 64.47     890.00
 64.57     896.32
 64.67     972.00
 64.77    1032.66
 64.87    1007.00
 64.97     943.66
 65.07     933.00
 65.17     815.00
 65.27     837.00
 65.37     728.81
 65.47     721.00
 65.57     680.00
 65.67     638.00
 65.77     626.00
 65.87     611.44
 65.97     593.31
 66.07     622.57
 66.17     580.41
 66.27     575.00
 66.37     512.00
 66.47     604.00
 66.57     565.00
 66.67     545.94
 66.77     542.06
 66.87     601.09
 66.97     562.62
 67.07     593.00
 67.17     701.00
 67.27     637.00
 67.37     787.00
 67.47     848.00
 67.57    1014.00
 67.67    1179.00
 67.77    1428.00
 67.87    1671.00
 67.97    1962.00
 68.07    2155.00
 68.17    2354.00
 68.27    2481.00
 68.37    2269.13
 68.47    2262.00
 68.57    1905.07
 68.67    1700.00
 68.77    1369.11
 68.87    1222.54
 68.97    1046.00
 69.07     827.00
 69.17     791.00
 69.27     733.00
 69.37     695.00
 69.47     601.30
 69.57     625.65
 69.67     629.12
 69.77     589.00
 69.87     570.00
 69.97     554.00
 70.07     557.00
 70.17     596.00
 70.27     529.00
 70.37     598.20
 70.47     570.00
 70.57     589.00
 70.67     578.00
 70.77     588.00
 70.87     630.81
 70.97     636.59
 71.07     617.00
 71.17     700.09
 71.27     692.43
 71.37     787.43
 71.47     950.44
 71.57    1006.00
 71.67    1170.44
 71.77    1386.00
 71.87    1539.14
 71.97    1749.00
 72.07    1745.00
 72.17    1867.00
 72.27    1891.57
 72.37    1850.88
 72.47    1689.00
 72.57    1527.00
 72.67    1411.49
 72.77    1203.17
 72.87    1046.00
 72.97     994.25
 73.07     828.00
 73.17     823.00
 73.27     733.54
 73.37     716.00
 73.47     653.00
 73.57     640.00
 73.67     597.00
 73.77     591.48
 73.87     601.46
 73.97     543.00
 74.07     599.00
 74.17     569.03
 74.27     556.00
 74.37     586.00
 74.47     578.00
 74.57     631.00
 74.67     586.00
 74.77     573.03
 74.87     620.00
 74.97     564.88
 75.07     665.00
 75.17     587.00
 75.27     572.00
 75.37     535.12
 75.47     559.37
 75.57     561.01
 75.67     504.00
 75.77     561.00
 75.87     554.55
 75.97     591.06
 76.07     604.00
 76.17     590.00
 76.27     633.88
 76.37     684.79
 76.47     679.00
 76.57     670.00
 76.67     639.24
 76.77     683.12
 76.87     709.00
 76.97     715.00
 77.07     688.70
 77.17     597.12
 77.27     612.00
 77.37     581.00
 77.47     565.00
 77.57     593.08
 77.67     493.00
 77.77     531.00
 77.87     509.00
 77.97     537.00
 78.07     501.00
 78.17     527.00
 78.27     515.08
 78.37     513.00
 78.47     517.00
 78.57     505.00
 78.67     502.00
 78.77     507.00
 78.87     524.32
 78.97     539.00
 79.07     491.00
 79.17     495.00
 79.27     515.00
 79.37     467.00
 79.47     473.64
 79.57     544.00
 79.67     551.51
 79.77     506.00
 79.87     509.52
 79.97     528.00
 80.07     506.81
 80.17     529.00
 80.27     555.28
 80.37     536.00
 80.47     551.00
 80.57     589.00
 80.67     547.00
 80.77     568.31
 80.87     621.00
 80.97     656.41
 81.07     689.79
 81.17     610.00
 81.27     758.00
 81.37     751.00
 81.47     724.00
 81.57     724.00
 81.67     783.52
 81.77     672.00
 81.87     750.00
 81.97     731.86
 82.07     653.47
 82.17     678.00
 82.27     623.18
 82.37     633.00
 82.47     660.32
 82.57     613.00
 82.67     601.00
 82.77     592.00
 82.87     516.00
 82.97     573.00
 83.07     546.00
 83.17     551.00
 83.27     542.00
 83.37     559.00
 83.47     502.00
 83.57     520.71
 83.67     534.00
 83.77     503.00
 83.87     565.00
 83.97     594.16
 84.07     590.00
 84.17     540.00
 84.27     524.46
 84.37     514.09
 84.47     558.58
 84.57     555.66
 84.67     562.00
 84.77     581.00
 84.87     535.00
 84.97     539.00
 85.07     540.36
 85.17     547.70
 85.27     481.18
 85.37     500.00
 85.47     491.69
 85.57     538.00
 85.67     526.26
 85.77     482.00
 85.87     524.19
 85.97     527.00
 86.07     524.00
 86.17     476.42
 86.27     509.94
 86.37     529.00
 86.47     543.49
 86.57     513.00
 86.67     555.00
 86.77     527.00
 86.87     581.00
 86.97     519.25
 87.07     598.00
 87.17     601.00
 87.27     568.74
 87.37     604.00
 87.47     595.00
 87.57     646.00
 87.67     637.00
 87.77     635.00
 87.87     606.00
 87.97     575.59
 88.07     601.00
 88.17     542.36
 88.27     576.15
 88.37     556.42
 88.47     591.00
 88.57     562.00
 88.67     570.00
 88.77     608.00
 88.87     582.00
 88.97     520.38
 89.07     565.00
 89.17     571.00
 89.27     587.00
 89.37     612.57
 89.47     572.00
 89.57     591.00
 89.67     587.00
 89.77     559.06
 89.87     573.59
 89.97     569.29
 90.07     529.00
 90.17     530.00
 90.27     540.00
 90.37     498.32
 90.47     565.31
 90.57     512.00
 90.67     522.00
 90.77     506.00
 90.87     518.00
 90.97     481.00
 91.07     491.60
 91.17     496.00
 91.27     519.91
 91.37     477.27
 91.47     493.00
 91.57     553.72
 91.67     499.00
 91.77     497.31
 91.87     497.00
 91.97     558.00
 92.07     487.00
 92.17     584.00
 92.27     564.64
 92.37     570.16
 92.47     562.63
 92.57     568.00
 92.67     553.00
 92.77     601.00
 92.87     597.00
 92.97     672.74
 93.07     645.00
 93.17     693.59
 93.27     698.19
 93.37     706.00
 93.47     755.43
 93.57     671.00
 93.67     795.00
 93.77     817.47
 93.87     789.00
 93.97     797.00
 94.07     831.00
 94.17     848.00
 94.27     808.00
 94.37     780.77
 94.47     862.00
 94.57     870.78
 94.67     846.57
 94.77     912.68
 94.87     890.00
 94.97     871.00
 95.07     853.52
 95.17     863.83
 95.27     909.00
 95.37     863.00
 95.47     821.00
 95.57     793.00
 95.67     772.00
 95.77     808.00
 95.87     667.89
 95.97     745.00
 96.07     730.18
 96.17     705.00
 96.27     711.00
 96.37     705.00
 96.47     678.00
 96.57     799.00
 96.67     810.00
 96.77     865.00
 96.87     894.00
 96.97     909.00
 97.07    1066.00
 97.17    1086.00
 97.27    1208.00
 97.37    1288.36
 97.47    1263.85
 97.57    1401.00
 97.67    1468.04
 97.77    1351.00
 97.87    1438.78
 97.97    1382.00
 98.07    1298.75
 98.17    1326.00
 98.27    1243.00
 98.37    1245.06
 98.47    1201.17
 98.57    1121.81
 98.67    1084.08
 98.77     999.96
 98.87     915.00
 98.97     906.00
 99.07     883.00
 99.17     893.67
 99.27     872.82
 99.37     923.00
 99.47     898.00
 99.57     976.00
 99.67     994.00
 99.77    1056.50
 99.87    1128.17
 99.97    1262.00
100.07    1288.49
100.17    1400.00
100.27    1552.00
100.37    1582.88
100.47    1758.59
100.57    1801.00
100.67    1886.00
100.77    1943.00
100.87    2009.00
100.97    1928.94
101.07    1903.02
101.17    2021.00
101.27    1912.00
101.37    1913.16
101.47    1776.00
101.57    1746.99
101.67    1654.00
101.77    1620.10
101.87    1468.82
101.97    1505.00
102.07    1361.00
102.17    1332.00
102.27    1284.26
102.37    1311.73
102.47    1240.00
102.57    1156.00
102.67    1166.00
102.77    1197.37
102.87    1069.14
102.97    1097.32
103.07    1068.00
103.17    1040.35
103.27    1032.00
103.37     970.82
103.47     882.00
103.57     814.40
103.67     782.99
103.77     742.76
103.87     763.00
103.97     752.66
104.07     716.00
104.17     693.00
104.27     624.00
104.37     669.00
104.47     553.00
104.57     522.61
104.67     551.00
104.77     572.00
104.87     533.00
104.97     531.67
105.07     551.00
105.17     529.00
105.27     511.00
105.37     553.00
105.47     539.00
105.57     518.00
105.67     550.00
105.77     527.00
105.87     552.00
105.97     558.00
106.07     535.00
106.17     530.00
106.27     567.81
106.37     565.00
106.47     606.00
106.57     578.00
106.67     635.11
106.77     629.00
106.87     597.00
106.97     630.00
107.07     673.00
107.17     617.00
107.27     685.68
107.37     663.00
107.47     696.00
107.57     717.29
107.67     723.39
107.77     656.00
107.87     650.00
107.97     659.00
108.07     722.22
108.17     662.67
108.27     684.68
108.37     687.89
108.47     676.08
108.57     643.45
108.67     613.00
108.77     674.71
108.87     660.00
108.97     650.00
109.07     705.16
109.17     671.00
109.27     683.00
109.37     717.57
109.47     653.89
109.57     656.00
109.67     640.00
109.77     675.00
109.87     651.66
109.97     642.00
110.07     655.80
110.17     572.00
110.27     594.11
110.37     567.00
110.47     588.00
110.57     589.40
110.67     542.00
110.77     571.72
110.87     587.00
110.97     550.00
111.07     585.00
111.17     545.00
111.27     498.38
111.37     531.44
111.47     527.00
111.57     528.95
111.67     523.00
111.77     552.00
111.87     529.00
111.97     574.00
112.07     547.91
112.17     515.00
112.27     506.00
112.37     513.75
112.47     547.00
112.57     543.00
112.67     507.00
112.77     551.10
112.87     610.89
112.97     571.00
113.07     551.00
113.17     595.00
113.27     594.00
113.37     553.00
113.47     624.36
113.57     601.00
113.67     640.68
113.77     605.00
113.87     724.97
113.97     698.00
114.07     741.24
114.17     750.00
114.27     831.00
114.37     844.00
114.47     934.00
114.57     969.79
114.67    1126.00
114.77    1218.00
114.87    1245.00
114.97    1491.00
115.07    1579.78
115.17    1755.66
115.27    2051.00
115.37    2307.00
115.47    2633.00
115.57    2830.00
115.67    2979.94
115.77    3433.91
115.87    3767.00
115.97    4022.00
116.07    4441.00
116.17    4843.96
116.27    5309.00
116.37    5563.00
116.47    5850.00
116.57    6222.00
116.67    6575.00
116.77    6536.54
116.87    6719.53
116.97    6967.00
117.07    6943.00
117.17    6864.00
117.27    6679.00
117.37    6425.00
117.47    6269.00
117.57    5720.00
117.67    5421.00
117.77    5176.00
117.87    4968.30
117.97    4435.31
118.07    4174.33
118.17    3865.00
118.27    3398.88
118.37    3137.00
118.47    2879.00
118.57    2436.00
118.67    2167.34
118.77    2034.00
118.87    1783.00
118.97    1656.00
119.07    1507.97
119.17    1378.00
119.27    1230.67
119.37    1081.00
119.47     970.25
119.57     948.00
119.67     925.00
119.77     836.00
119.87     743.81
119.97     716.00
120.07     706.63
120.17     712.00
120.27     646.00
120.37     674.00
120.47     614.07
120.57     591.78
120.67     640.67
120.77     576.00
120.87     538.00
120.97     600.00
121.07     551.99
121.17     618.52
121.27     635.00
121.37     552.00
121.47     562.00
121.57     560.00
121.67     542.00
121.77     577.00
121.87     543.38
121.97     580.00
122.07     606.14
122.17     593.00
122.27     543.00
122.37     613.00
122.47     621.00
122.57     617.00
122.67     627.00
122.77     631.65
122.87     663.05
122.97     598.00
123.07     600.00
123.17     603.00
123.27     666.00
123.37     627.49
123.47     663.09
123.57     644.85
123.67     676.06
123.77     624.00
123.87     645.49
123.97     647.12
124.07     662.00
124.17     634.00
124.27     651.56
124.37     593.00
124.47     632.00
124.57     634.97
124.67     565.63
124.77     562.00
124.87     624.00
124.97     604.00
