  9.97     828.00
 10.07     815.00
 10.17     827.00
 10.27     730.80
 10.37     798.00
 10.47     796.09
 10.57     763.00
 10.67     798.00
 10.77     783.00
 10.87     741.00
 10.97     744.00
 11.07     730.59
 11.17     755.00
 11.27     820.00
 11.37     747.00
 11.47     784.00
 11.57     791.02
 11.67     716.46
 11.77     818.00
 11.87     807.00
 11.97     811.83
 12.07     896.00
 12.17     887.00
 12.27     901.00
 12.37     941.00
 12.47     905.00
 12.57     784.00
 12.67     787.00
 12.77     734.00
 12.87     773.00
 12.97     738.91
 13.07     695.00
 13.17     793.95
 13.27     722.00
 13.37     749.97
 13.47     680.71
 13.57     729.42
 13.67     716.00
 13.77     682.00
 13.87     704.00
 13.97     720.96
 14.07     748.00
 14.17     737.81
 14.27     736.00
 14.37     775.46
 14.47     766.46
 14.57     740.31
 14.67     711.00
 14.77     681.00
 14.87     664.72
 14.97     702.00
 15.07     684.00
 15.17     742.00
 15.27     715.14
 15.37     658.53
 15.47     735.00
 15.57     705.00
 15.67     675.00
 15.77     672.00
 15.87     712.00
 15.97     676.00
 16.07     684.00
 16.17     666.00
 16.27     677.00
 16.37     722.00
 16.47     706.00
 16.57     702.33
 16.67     671.82
 16.77     692.00
 16.87     719.00
 16.97     690.00
 17.07     673.00
 17.17     658.00
 17.27     649.16
 17.37     669.03
 17.47     733.00
 17.57     701.00
 17.67     718.00
 17.77     745.62
 17.87     642.00
 17.97     673.00
 18.07     643.07
 18.17     672.00
 18.27     743.53
 18.37     683.00
 18.47     626.00
 18.57     678.00
 18.67     691.57
 18.77     666.92
 18.87     722.34
 18.97     690.00
 19.07     657.00
 19.17     660.00
 19.27     694.23
 19.37     660.00
 19.47     643.00
 19.57     677.00
 19.67     634.37
 19.77     691.00
 19.87     661.61
 19.97     688.39
 20.07     707.00
 20.17     642.00
 20.27     669.00
 20.37     627.00
 20.47     672.00
 20.57     638.28
 20.67     682.00
 20.77     670.91
 20.87     656.58
 20.97     697.27
 21.07     659.85
 21.17     676.00
 21.27     669.00
 21.37     694.00
 21.47     651.00
 21.57     685.00
 21.67     714.39
 21.77     669.00
 21.87     635.00
 21.97     666.00
 22.07     702.61
 22.17     606.00
 22.27     670.00
 22.37     713.25
 22.47     665.00
 22.57     669.00
 22.67     672.00
 22.77     630.00
 22.87     636.00
 22.97     695.38
 23.07     661.18
 23.17     656.00
 23.27     677.54
 23.37     671.52
 23.47     590.00
 23.57     723.89
 23.67     611.00
 23.77     692.00
 23.87     652.29
 23.97     644.00
 24.07     662.49
 24.17     666.00
 24.27     639.37
 24.37     677.00
 24.47     713.00
 24.57     704.00
 24.67     721.00
 24.77     698.39
 24.87     785.00
 24.97     768.00
 25.07     768.00
 25.17     715.00
 25.27     772.31
 25.37     737.00
 25.47     701.00
 25.57     740.05
 25.67     662.49
 25.77     716.00
 25.87     717.00
 25.97     673.00
 26.07     711.00
 26.17     711.00
 26.27     662.17
 26.37     713.00
 26.47     706.00
 26.57     707.79
 26.67     711.00
 26.77     729.00
 26.87     680.26
 26.97     792.49
 27.07     722.00
 27.17     751.04
 27.27     728.79
 27.37     800.00
 27.47     775.00
 27.57     823.00
 27.67     905.00
 27.77     926.00
 27.87    1100.00
 27.97    1366.37
 28.07    2200.55
 28.17    3206.00
 28.27    5499.00
 28.37    8088.68
 28.47    9354.00
 28.57    9277.00
 28.67    7049.22
 28.77    5228.00
 28.87    4152.00
 28.97    4174.00
 29.07    4864.44
 29.17    5372.80
 29.27    5156.00
 29.37    3997.00
 29.47    2936.53
 29.57    2047.00
 29.67    1436.00
 29.77    1198.00
 29.87     908.09
 29.97     959.00
 30.07     946.00
 30.17     826.56
 30.27     815.83
 30.37     811.00
 30.47     784.69
 30.57     765.00
 30.67     715.88
 30.77     773.00
 30.87     777.00
 30.97     761.00
 31.07     820.00
 31.17     852.00
 31.27     818.00
 31.37     816.00
 31.47     817.00
 31.57     732.28
 31.67     706.62
 31.77     774.00
 31.87     712.55
 31.97     724.00
 32.07     654.30
 32.17     652.90
 32.27     705.99
 32.37     695.00
 32.47     696.00
 32.57     734.00
 32.67     722.00
 32.77     695.00
 32.87     694.00
 32.97     717.00
 33.07     622.37
 33.17     727.00
 33.27     671.00
 33.37     727.00
 33.47     649.53
 33.57     703.00
 33.67     700.26
 33.77     757.00
 33.87     784.48
 33.97     901.00
 34.07    1032.00
 34.17    1115.00
 34.27    1324.00
 34.37    1403.00
 34.47    1269.00
 34.57    1159.00
 34.67    1060.49
 34.77     945.77
 34.87     833.40
 34.97     759.19
 35.07     754.59
 35.17     703.00
 35.27     748.00
 35.37     643.06
 35.47     697.78
 35.57     688.92
 35.67     630.00
 35.77     705.00
 35.87     600.40
 35.97     716.00
 36.07     608.00
 36.17     624.00
 36.27     647.00
 36.37     673.00
 36.47     690.00
 36.57     665.00
 36.67     650.00
 36.77     683.00
 36.87     679.85
 36.97     636.00
 37.07     677.00
 37.17     674.00
 37.27     689.00
 37.37     674.00
 37.47     644.00
 37.57     665.00
 37.67     690.00
 37.77     670.00
 37.87     713.82
 37.97     726.41
 38.07     733.00
 38.17     772.06
 38.27     847.00
 38.37     800.16
 38.47     809.01
 38.57     730.00
 38.67     782.00
 38.77     704.00
 38.87     630.00
 38.97     669.00
 39.07     682.00
 39.17     648.67
 39.27     643.00
 39.37     622.84
 39.47     634.83
 39.57     703.14
 39.67     698.10
 39.77     659.00
 39.87     616.00
 39.97     676.00
 40.07     653.00
 40.17     630.00
 40.27     656.67
 40.37     679.00
 40.47     648.00
 40.57     635.00
 40.67     651.11
 40.77     620.06
 40.87     621.00
 40.97     642.00
 41.07     662.00
 41.17     633.58
 41.27     606.66
 41.37     589.36
 41.47     666.00
 41.57     632.00
 41.67     614.00
 41.77     650.00
 41.87     599.00
 41.97     610.12
 42.07     630.00
 42.17     621.00
 42.27     617.00
 42.37     614.37
 42.47     653.00
 42.57     605.00
 42.67     714.62
 42.77     680.21
 42.87     699.00
 42.97     694.69
 43.07     735.07
 43.17     702.46
 43.27     737.00
 43.37     735.00
 43.47     691.00
 43.57     710.00
 43.67     683.00
 43.77     630.73
 43.87     668.00
 43.97     654.00
 44.07     648.15
 44.17     673.00
 44.27     683.00
 44.37     671.00
 44.47     640.00
 44.57     683.00
 44.67     591.00
 44.77     643.00
 44.87     628.75
 44.97     632.00
 45.07     659.00
 45.17     684.43
 45.27     683.00
 45.37     642.00
 45.47     688.00
 45.57     666.63
 45.67     682.00
 45.77     668.60
 45.87     686.00
 45.97     651.65
 46.07     685.00
 46.17     648.00
 46.27     600.16
 46.37     615.82
 46.47     652.16
 46.57     654.05
 46.67     619.79
 46.77     602.21
 46.87     641.00
 46.97     641.00
 47.07     634.00
 47.17     678.12
 47.27     636.65
 47.37     672.49
 47.47     630.02
 47.57     696.00
 47.67     671.00
 47.77     685.97
 47.87     678.00
 47.97     708.13
 48.07     719.00
 48.17     747.00
 48.27     791.30
 48.37     749.00
 48.47     781.45
 48.57     716.14
 48.67     723.00
 48.77     683.00
 48.87     667.00
 48.97     690.00
 49.07     688.00
 49.17     691.00
 49.27     655.31
 49.37     661.62
 49.47     747.83
 49.57     681.00
 49.67     741.00
 49.77     833.50
 49.87     852.00
 49.97    1007.81
 50.07    1200.00
 50.17    1480.00
 50.27    1870.00
 50.37    2452.00
 50.47    2926.00
 50.57    3306.00
 50.67    3271.38
 50.77    3045.00
 50.87    2727.00
 50.97    2198.00
 51.07    1645.00
 51.17    1334.00
 51.27    1134.16
 51.37     948.00
 51.47     919.00
 51.57     808.89
 51.67     785.00
 51.77     783.00
 51.87     737.85
 51.97     719.29
 52.07     785.05
 52.17     713.00
 52.27     786.66
 52.37     726.00
 52.47     749.00
 52.57     767.08
 52.67     722.22
 52.77     685.09
 52.87     759.00
 52.97     741.00
 53.07     805.00
 53.17     732.37
 53.27     827.87
 53.37     816.00
 53.47     912.46
 53.57     929.00
 53.67    1038.64
 53.77    1185.00
 53.87    1234.00
 53.97    1299.00
 54.07    1385.00
 54.17    1365.86
 54.27    1311.06
 54.37    1172.02
 54.47    1023.00
 54.57     975.31
 54.67     845.21
 54.77     845.00
 54.87     768.00
 54.97     728.00
 55.07     755.00
 55.17     741.20
 55.27     714.00
 55.37     767.00
 55.47     663.57
 55.57     750.18
 55.67     700.36
 55.77     729.80
 55.87     723.00
 55.97     738.00
 56.07     792.56
 56.17     753.00
 56.27     756.69
 56.37     792.00
 56.47     766.00
 56.57     911.00
 56.67    1050.14
 56.77    1283.91
 56.87    1342.00
 56.97    1669.00
 57.07    2134.05
 57.17    2420.00
 57.27    2722.12
 57.37    2829.00
 57.47    2817.00
 57.57    2656.00
 57.67    2316.00
 57.77    1963.00
 57.87    1622.00
 57.97    1350.00
 58.07    1179.82
 58.17    1046.00
 58.27     906.00
 58.37     925.96
 58.47     867.10
 58.57     837.00
 58.67     907.00
 58.77     906.74
 58.87    1020.00
 58.97    1111.92
 59.07    1232.56
 59.17    1223.75
 59.27    1298.00
 59.37    1387.90
 59.47    1485.08
 59.57    1446.00
 59.67    1401.00
 59.77    1350.81
 59.87    1309.00
 59.97    1295.00
 60.07    1324.00
 60.17    1309.59
 60.27    1411.24
 60.37    1433.48
 60.47    1509.00
 60.57    1623.32
 60.67    1670.42
 60.77    1673.00
 60.87    1652.00
 60.97    1603.04
 61.07    1410.00
 61.17    1303.00
 61.27    1185.00
 61.37    1027.00
 61.47     973.62
 61.57     916.00
 61.67     939.00
 61.77     895.62
 61.87     933.00
 61.97     934.00
 62.07     995.93
 62.17    1139.92
 62.27    1258.07
 62.37    1398.00
 62.47    1663.00
 62.57    1854.59
 62.67    1920.00
 62.77    1949.00
 62.87    1935.00
 62.97    1855.00
 63.07    1604.00
 63.17    1479.79
 63.27    1249.00
 63.37    1149.19
 63.47     929.37
 63.57     922.00
 63.67     875.00
 63.77     844.53
 63.87     767.00
 63.97     818.00
 64.07     722.96
 64.17     830.58
 64.27     849.00
 64.37     802.00
 64.47     881.00
 64.57     957.00
 64.67     988.00
 64.77    1126.00
 64.87    1237.00
 64.97    1414.00
 65.07    1538.00
 65.17    1584.52
 65.27    1778.00
 65.37    1702.00
 65.47    1611.00
 65.57    1588.75
 65.67    1454.94
 65.77    1380.00
 65.87    1100.00
 65.97    1088.00
 66.07    1024.00
 66.17     881.00
 66.27     856.56
 66.37     818.05
 66.47     826.93
 66.57     773.00
 66.67     741.00
 66.77     708.00
 66.87     735.26
 66.97     775.00
 67.07     756.00
 67.17     796.69
 67.27     731.00
 67.37     752.92
 67.47     761.00
 67.57     856.00
 67.67     821.00
 67.77     879.00
 67.87     970.16
 67.97    1157.08
 68.07    1182.00
 68.17    1493.00
 68.27    1735.94
 68.37    1831.00
 68.47    2159.00
 68.57    2362.06
 68.67    2504.00
 68.77    2558.00
 68.87    2448.00
 68.97    2275.41
 69.07    2178.00
 69.17    1905.00
 69.27    1750.00
 69.37    1464.00
 69.47    1350.00
 69.57    1155.00
 69.67    1028.00
 69.77     948.73
 69.87     936.00
 69.97     829.49
 70.07     868.00
 70.17     799.50
 70.27     802.66
 70.37     752.00
 70.47     763.00
 70.57     751.00
 70.67     704.44
 70.77     739.00
 70.87     692.34
 70.97     715.00
 71.07     735.00
 71.17     792.98
 71.27     698.00
 71.37     785.14
 71.47     765.00
 71.57     816.79
 71.67     828.00
 71.77     912.00
 71.87     968.00
 71.97    1143.03
 72.07    1182.00
 72.17    1333.00
 72.27    1569.44
 72.37    1743.67
 72.47    1859.19
 72.57    2009.00
 72.67    2057.00
 72.77    2018.00
 72.87    2086.74
 72.97    1908.00
 73.07    1667.95
 73.17    1561.00
 73.27    1442.51
 73.37    1312.00
 73.47    1183.02
 73.57     960.26
 73.67     911.00
 73.77     902.00
 73.87     838.00
 73.97     822.03
 74.07     763.00
 74.17     794.50
 74.27     746.00
 74.37     723.00
 74.47     746.00
 74.57     768.00
 74.67     701.00
 74.77     690.00
 74.87     689.00
 74.97     745.00
 75.07     758.18
 75.17     793.51
 75.27     740.39
 75.37     770.00
 75.47     744.19
 75.57     729.62
 75.67     783.00
 75.77     766.00
 75.87     737.00
 75.97     714.14
 76.07     801.00
 76.17     776.00
 76.27     730.00
 76.37     787.00
 76.47     779.00
 76.57     814.22
 76.67     830.00
 76.77     879.00
 76.87     941.00
 76.97    1074.92
 77.07     991.00
 77.17    1065.15
 77.27    1153.00
 77.37    1134.00
 77.47    1090.07
 77.57    1165.00
 77.67    1024.16
 77.77     927.36
 77.87     924.00
 77.97     929.00
 78.07     815.00
 78.17     863.46
 78.27     817.90
 78.37     787.92
 78.47     760.26
 78.57     698.71
 78.67     734.40
 78.77     667.00
 78.87     680.82
 78.97     663.00
 79.07     662.00
 79.17     645.00
 79.27     654.00
 79.37     676.52
 79.47     626.70
 79.57     653.00
 79.67     734.00
 79.77     636.93
 79.87     648.00
 79.97     659.00
 80.07     673.00
 80.17     649.09
 80.27     700.00
 80.37     732.00
 80.47     749.00
 80.57     756.00
 80.67     782.53
 80.77     826.00
 80.87     891.67
 80.97     962.00
 81.07     992.00
 81.17    1088.00
 81.27    1216.00
 81.37    1218.26
 81.47    1348.44
 81.57    1365.91
 81.67    1573.00
 81.77    1628.89
 81.87    1667.00
 81.97    1584.64
 82.07    1694.00
 82.17    1532.00
 82.27    1468.00
 82.37    1375.26
 82.47    1354.00
 82.57    1218.37
 82.67    1153.00
 82.77    1065.00
 82.87     974.00
 82.97     949.00
 83.07     866.00
 83.17     788.00
 83.27     785.00
 83.37     742.00
 83.47     726.00
 83.57     730.47
 83.67     691.00
 83.77     704.00
 83.87     682.00
 83.97     748.94
 84.07     669.53
 84.17     729.00
 84.27     760.49
 84.37     730.00
 84.47     767.59
 84.57     778.02
 84.67     676.00
 84.77     750.00
 84.87     712.70
 84.97     778.33
 85.07     715.35
 85.17     753.47
 85.27     712.57
 85.37     679.00
 85.47     697.00
 85.57     734.38
 85.67     656.73
 85.77     643.00
 85.87     672.00
 85.97     674.00
 86.07     659.00
 86.17     634.00
 86.27     678.00
 86.37     634.75
 86.47     676.00
 86.57     721.41
 86.67     698.28
 86.77     638.69
 86.87     720.75
 86.97     688.53
 87.07     721.07
 87.17     705.00
 87.27     688.00
 87.37     724.00
 87.47     749.58
 87.57     751.80
 87.67     724.00
 87.77     778.00
 87.87     725.74
 87.97     797.00
 88.07     743.43
 88.17     716.90
 88.27     791.00
 88.37     753.01
 88.47     760.00
 88.57     811.00
 88.67     743.00
 88.77     789.00
 88.87     770.00
 88.97     694.58
 89.07     718.00
 89.17     711.00
 89.27     701.79
 89.37     719.02
 89.47     695.00
 89.57     712.00
 89.67     703.18
 89.77     714.00
 89.87     732.00
 89.97     722.00
 90.07     720.71
 90.17     685.02
 90.27     708.00
 90.37     678.51
 90.47     681.00
 90.57     758.81
 90.67     694.21
 90.77     743.00
 90.87     638.02
 90.97     689.34
 91.07     662.05
 91.17     626.00
 91.27     647.00
 91.37     676.00
 91.47     686.00
 91.57     622.00
 91.67     606.00
 91.77     609.23
 91.87     641.00
 91.97     587.00
 92.07     620.00
 92.17     618.00
 92.27     593.48
 92.37     647.00
 92.47     663.00
 92.57     646.00
 92.67     681.00
 92.77     680.55
 92.87     699.00
 92.97     643.00
 93.07     692.00
 93.17     680.62
 93.27     686.00
 93.37     689.00
 93.47     795.41
 93.57     674.00
 93.67     843.00
 93.77     832.00
 93.87     860.13
 93.97     775.30
 94.07     806.78
 94.17     834.42
 94.27     851.00
 94.37     913.68
 94.47     912.72
 94.57     957.25
 94.67     901.40
 94.77    1007.73
 94.87     995.00
 94.97    1038.61
 95.07    1048.00
 95.17    1029.00
 95.27    1057.48
 95.37    1066.00
 95.47    1131.99
 95.57    1104.00
 95.67    1026.41
 95.77    1082.00
 95.87    1139.00
 95.97    1013.42
 96.07    1119.29
 96.17    1106.00
 96.27     998.00
 96.37    1014.10
 96.47     961.00
 96.57     912.00
 96.67     857.92
 96.77     875.00
 96.87     848.00
 96.97     892.00
 97.07     853.00
 97.17     851.00
 97.27     903.75
 97.37     882.52
 97.47    1026.00
 97.57    1088.42
 97.67    1049.14
 97.77    1152.00
 97.87    1190.00
 97.97    1333.87
 98.07    1382.00
 98.17    1463.00
 98.27    1464.00
 98.37    1601.30
 98.47    1569.00
 98.57    1651.00
 98.67    1607.00
 98.77    1655.00
 98.87    1606.17
 98.97    1560.00
 99.07    1563.00
 99.17    1487.00
 99.27    1398.00
 99.37    1337.00
 99.47    1244.90
 99.57    1170.00
 99.67    1136.00
 99.77    1119.00
 99.87    1120.95
 99.97    1028.00
100.07    1038.82
100.17    1105.07
100.27    1098.00
100.37    1068.00
100.47    1225.46
100.57    1230.00
100.67    1300.00
100.77    1366.00
100.87    1500.00
100.97    1568.00
101.07    1657.00
101.17    1796.00
101.27    1793.00
101.37    1984.83
101.47    1945.00
101.57    2055.00
101.67    2087.00
101.77    2126.00
101.87    2168.73
101.97    2227.00
102.07    2154.40
102.17    2088.00
102.27    2171.93
102.37    2107.00
102.47    2052.00
102.57    1848.73
102.67    1926.00
102.77    1790.00
102.87    1697.00
102.97    1650.00
103.07    1640.00
103.17    1574.17
103.27    1408.00
103.37    1472.64
103.47    1427.00
103.57    1328.00
103.67    1319.41
103.77    1252.00
103.87    1285.00
103.97    1258.00
104.07    1154.86
104.17    1179.00
104.27    1171.41
104.37    1118.00
104.47    1089.00
104.57    1007.00
104.67    1000.63
104.77     930.08
104.87     848.00
104.97     857.00
105.07     756.77
105.17     817.00
105.27     702.52
105.37     718.37
105.47     758.75
105.57     746.00
105.67     733.00
105.77     684.58
105.87     653.80
105.97     714.00
106.07     675.00
106.17     692.00
106.27     644.00
106.37     626.00
106.47     628.00
106.57     709.00
106.67     657.65
106.77     689.00
106.87     688.00
106.97     639.18
107.07     687.00
107.17     695.00
107.27     651.35
107.37     692.00
107.47     708.00
107.57     730.00
107.67     721.37
107.77     741.00
107.87     729.00
107.97     788.00
108.07     817.00
108.17     752.00
108.27     831.21
108.37     787.64
108.47     786.00
108.57     797.00
108.67     821.00
108.77     843.71
108.87     864.41
108.97     830.00
109.07     812.00
109.17     800.00
109.27     807.00
109.37     806.00
109.47     781.45
109.57     763.00
109.67     876.56
109.77     872.43
109.87     798.00
109.97     782.00
110.07     846.00
110.17     820.37
110.27     782.00
110.37     816.00
110.47     823.00
110.57     824.00
110.67     775.00
110.77     827.00
110.87     815.00
110.97     815.00
111.07     800.00
111.17     742.39
111.27     765.00
111.37     786.00
111.47     764.00
111.57     719.00
111.67     686.07
111.77     708.00
111.87     733.77
111.97     645.00
112.07     695.00
112.17     708.00
112.27     665.00
112.37     618.00
112.47     696.00
112.57     667.00
112.67     669.06
112.77     695.43
112.87     663.36
112.97     638.00
113.07     636.40
113.17     656.24
113.27     666.00
113.37     663.00
113.47     631.67
113.57     669.00
113.67     645.00
113.77     705.08
113.87     711.33
113.97     620.00
114.07     684.00
114.17     663.00
114.27     717.91
114.37     673.00
114.47     774.71
114.57     731.00
114.67     737.00
114.77     732.00
114.87     761.00
114.97     830.52
115.07     824.95
115.17     828.00
115.27     877.75
115.37     941.00
115.47    1045.00
115.57    1087.00
115.67    1132.00
115.77    1261.63
115.87    1415.45
115.97    1585.00
116.07    1806.04
116.17    1939.00
116.27    2238.00
116.37    2411.00
116.47    2788.30
116.57    2947.55
116.67    3352.00
116.77    3538.00
116.87    3973.00
116.97    4534.57
117.07    4780.00
117.17    5084.00
117.27    5507.00
117.37    5942.45
117.47    6334.00
117.57    6604.00
117.67    6834.78
117.77    7227.00
117.87    7386.00
117.97    7583.00
118.07    7730.24
118.17    7547.36
118.27    7605.00
118.37    7579.00
118.47    7384.00
118.57    7008.72
118.67    6670.00
118.77    6282.89
118.87    5956.00
118.97    5704.31
119.07    5212.17
119.17    4956.09
119.27    4648.00
119.37    4327.00
119.47    3905.00
119.57    3633.00
119.67    3160.22
119.77    2898.00
119.87    2609.82
119.97    2425.00
120.07    2240.00
120.17    2011.48
120.27    1857.00
120.37    1581.87
120.47    1583.00
120.57    1449.00
120.67    1324.00
120.77    1250.00
120.87    1081.00
120.97     998.89
121.07    1122.00
121.17    1061.00
121.27     881.32
121.37     948.00
121.47     874.90
121.57     867.25
121.67     781.92
121.77     866.62
121.87     771.79
121.97     749.00
122.07     761.00
122.17     775.00
122.27     808.62
122.37     783.61
122.47     712.29
122.57     708.49
122.67     805.56
122.77     725.00
122.87     725.00
122.97     715.00
123.07     762.00
123.17     757.10
123.27     821.24
123.37     792.55
123.47     811.13
123.57     852.57
123.67     767.00
123.77     788.00
123.87     837.00
123.97     818.07
124.07     760.42
124.17     851.00
124.27     874.38
124.37     821.00
124.47     830.00
124.57     900.00
124.67     820.98
124.77     861.48
124.87     821.00
124.97     825.14
