  9.97     656.00
 10.07     591.00
 10.17     581.00
 10.27     622.01
 10.37     551.00
 10.47     594.00
 10.57     604.00
 10.67     622.00
 10.77     610.00
 10.87     557.15
 10.97     558.00
 11.07     609.00
 11.17     591.41
 11.27     630.63
 11.37     579.00
 11.47     593.00
 11.57     624.16
 11.67     603.00
 11.77     667.00
 11.87     585.42
 11.97     663.00
 12.07     688.00
 12.17     692.00
 12.27     691.00
 12.37     701.06
 12.47     646.03
 12.57     580.05
 12.67     576.99
 12.77     606.00
 12.87     607.26
 12.97     590.00
 13.07     563.00
 13.17     549.00
 13.27     581.00
 13.37     572.00
 13.47     575.00
 13.57     567.00
 13.67     587.31
 13.77     560.00
 13.87     555.00
 13.97     577.00
 14.07     584.00
 14.17     541.00
 14.27     550.00
 14.37     594.84
 14.47     596.00
 14.57     547.00
 14.67     604.00
 14.77     507.00
 14.87     613.00
 14.97     547.00
 15.07     613.00
 15.17     548.00
 15.27     525.80
 15.37     534.00
 15.47     566.00
 15.57     569.00
 15.67     566.96
 15.77     568.00
 15.87     579.00
 15.97     583.00
 16.07     589.00
 16.17     558.00
 16.27     525.00
 16.37     563.17
 16.47     542.52
 16.57     558.00
 16.67     600.49
 16.77     562.00
 16.87     521.59
 16.97     559.00
 17.07     566.00
 17.17     587.00
 17.27     591.53
 17.37     569.00
 17.47     525.70
 17.57     527.00
 17.67     573.00
 17.77     570.43
 17.87     568.00
 17.97     580.95
 18.07     589.00
 18.17     558.86
 18.27     576.00
 18.37     558.00
 18.47     571.00
 18.57     594.85
 18.67     591.42
 18.77     535.00
 18.87     554.00
 18.97     528.00
 19.07     546.47
 19.17     557.00
 19.27     536.00
 19.37     565.85
 19.47     580.93
 19.57     552.00
 19.67     555.63
 19.77     528.00
 19.87     539.40
 19.97     543.00
 20.07     579.00
 20.17     561.42
 20.27     529.00
 20.37     591.28
 20.47     545.00
 20.57     584.03
 20.67     544.75
 20.77     589.90
 20.87     575.68
 20.97     555.12
 21.07     522.20
 21.17     521.00
 21.27     580.59
 21.37     544.20
 21.47     520.30
 21.57     513.00
 21.67     548.00
 21.77     539.00
 21.87     562.37
 21.97     542.00
 22.07     567.00
 22.17     511.15
 22.27     534.00
 22.37     524.00
 22.47     564.00
 22.57     527.96
 22.67     557.00
 22.77     529.00
 22.87     570.00
 22.97     541.60
 23.07     534.00
 23.17     530.00
 23.27     531.00
 23.37     530.00
 23.47     506.00
 23.57     532.86
 23.67     515.00
 23.77     528.00
 23.87     561.00
 23.97     575.00
 24.07     554.00
 24.17     531.30
 24.27     579.00
 24.37     565.00
 24.47     588.00
 24.57     610.00
 24.67     637.00
 24.77     651.71
 24.87     583.76
 24.97     575.00
 25.07     573.00
 25.17     589.23
 25.27     559.00
 25.37     528.00
 25.47     570.00
 25.57     557.57
 25.67     545.00
 25.77     625.00
 25.87     533.66
 25.97     545.43
 26.07     567.00
 26.17     573.00
 26.27     516.42
 26.37     548.70
 26.47     577.84
 26.57     493.50
 26.67     572.00
 26.77     515.47
 26.87     557.00
 26.97     508.66
 27.07     561.78
 27.17     539.00
 27.27     576.00
 27.37     558.00
 27.47     535.53
 27.57     498.05
 27.67     566.00
 27.77     542.00
 27.87     584.00
 27.97     672.91
 28.07     825.00
 28.17     911.54
 28.27     908.00
 28.37     846.00
 28.47     847.55
 28.57     706.00
 28.67     702.00
 28.77     735.78
 28.87     760.00
 28.97     790.57
 29.07     784.92
 29.17     676.04
 29.27     656.00
 29.37     599.78
 29.47     558.00
 29.57     565.10
 29.67     556.98
 29.77     599.00
 29.87     508.73
 29.97     604.00
 30.07     537.00
 30.17     571.00
 30.27     516.05
 30.37     555.00
 30.47     537.00
 30.57     543.00
 30.67     565.00
 30.77     603.00
 30.87     597.43
 30.97     617.00
 31.07     572.00
 31.17     612.00
 31.27     620.00
 31.37     552.00
 31.47     567.00
 31.57     551.03
 31.67     544.00
 31.77     511.35
 31.87     520.00
 31.97     555.00
 32.07     554.00
 32.17     538.00
 32.27     546.00
 32.37     541.00
 32.47     541.04
 32.57     509.00
 32.67     546.00
 32.77     553.00
 32.87     521.01
 32.97     549.00
 33.07     532.00
 33.17     577.57
 33.27     548.51
 33.37     585.00
 33.47     562.00
 33.57     618.67
 33.67     640.66
 33.77     765.00
 33.87     856.95
 33.97    1043.94
 34.07    1089.00
 34.17    1036.00
 34.27     869.00
 34.37     772.00
 34.47     635.00
 34.57     633.11
 34.67     562.87
 34.77     522.38
 34.87     486.00
 34.97     524.78
 35.07     522.00
 35.17     533.00
 35.27     485.00
 35.37     482.00
 35.47     546.38
 35.57     537.32
 35.67     545.00
 35.77     485.35
 35.87     535.00
 35.97     494.00
 36.07     547.00
 36.17     525.00
 36.27     511.02
 36.37     452.00
 36.47     516.00
 36.57     486.25
 36.67     532.00
 36.77     488.35
 36.87     504.00
 36.97     535.83
 37.07     516.00
 37.17     530.00
 37.27     480.00
 37.37     540.00
 37.47     549.00
 37.57     525.58
 37.67     526.00
 37.77     481.00
 37.87     517.00
 37.97     511.00
 38.07     497.95
 38.17     543.34
 38.27     529.00
 38.37     490.00
 38.47     511.68
 38.57     503.00
 38.67     472.90
 38.77     475.00
 38.87     507.00
 38.97     473.00
 39.07     532.00
 39.17     508.00
 39.27     510.00
 39.37     492.00
 39.47     500.00
 39.57     529.00
 39.67     545.84
 39.77     507.56
 39.87     532.00
 39.97     545.00
 40.07     584.00
 40.17     518.55
 40.27     521.37
 40.37     484.00
 40.47     504.00
 40.57     482.32
 40.67     535.84
 40.77     491.00
 40.87     508.00
 40.97     480.00
 41.07     476.26
 41.17     471.50
 41.27     515.06
 41.37     523.53
 41.47     492.92
 41.57     476.00
 41.67     497.27
 41.77     471.26
 41.87     489.00
 41.97     467.00
 42.07     496.84
 42.17     501.00
 42.27     505.00
 42.37     546.00
 42.47     620.33
 42.57     580.00
 42.67     665.94
 42.77     575.00
 42.87     567.00
 42.97     573.00
 43.07     533.00
 43.17     519.00
 43.27     506.00
 43.37     517.10
 43.47     517.81
 43.57     536.00
 43.67     498.17
 43.77     490.00
 43.87     489.00
 43.97     486.80
 44.07     471.63
 44.17     522.63
 44.27     522.00
 44.37     494.64
 44.47     485.57
 44.57     510.00
 44.67     515.59
 44.77     512.00
 44.87     483.40
 44.97     529.04
 45.07     524.63
 45.17     530.00
 45.27     468.00
 45.37     490.00
 45.47     499.00
 45.57     508.00
 45.67     488.00
 45.77     522.00
 45.87     535.00
 45.97     503.00
 46.07     493.00
 46.17     493.27
 46.27     476.58
 46.37     528.00
 46.47     490.19
 46.57     477.26
 46.67     510.00
 46.77     482.65
 46.87     472.38
 46.97     519.00
 47.07     514.00
 47.17     502.00
 47.27     514.00
 47.37     530.00
 47.47     559.00
 47.57     543.00
 47.67     543.00
 47.77     576.00
 47.87     580.00
 47.97     559.00
 48.07     578.00
 48.17     529.04
 48.27     566.00
 48.37     521.00
 48.47     494.00
 48.57     510.00
 48.67     594.00
 48.77     515.00
 48.87     518.00
 48.97     571.00
 49.07     567.00
 49.17     568.00
 49.27     615.00
 49.37     638.50
 49.47     699.00
 49.57     665.00
 49.67     933.00
 49.77    1184.00
 49.87    1504.00
 49.97    1796.92
 50.07    2202.00
 50.17    2566.98
 50.27    2604.65
 50.37    2297.00
 50.47    1783.00
 50.57    1468.00
 50.67     994.00
 50.77     839.93
 50.87     738.97
 50.97     693.00
 51.07     642.00
 51.17     636.83
 51.27     603.12
 51.37     584.01
 51.47     532.11
 51.57     595.28
 51.67     578.00
 51.77     567.00
 51.87     610.00
 51.97     530.45
 52.07     557.55
 52.17     558.00
 52.27     548.42
 52.37     520.12
 52.47     566.00
 52.57     550.00
 52.67     582.00
 52.77     637.00
 52.87     604.85
 52.97     729.95
 53.07     770.85
 53.17     904.00
 53.27    1082.00
 53.37    1119.49
 53.47    1272.00
 53.57    1164.28
 53.67    1105.00
 53.77     976.00
 53.87     867.00
 53.97     703.00
 54.07     717.00
 54.17     695.00
 54.27     628.05
 54.37     611.00
 54.47     575.00
 54.57     572.00
 54.67     542.00
 54.77     576.00
 54.87     564.00
 54.97     539.00
 55.07     579.00
 55.17     575.00
 55.27     574.69
 55.37     578.00
 55.47     538.21
 55.57     560.33
 55.67     615.00
 55.77     593.52
 55.87     555.82
 55.97     601.00
 56.07     684.00
 56.17     766.64
 56.27     951.85
 56.37    1133.90
 56.47    1473.00
 56.57    1836.00
 56.67    2232.00
 56.77    2467.00
 56.87    2629.47
 56.97    2556.00
 57.07    2366.22
 57.17    2022.59
 57.27    1593.21
 57.37    1317.51
 57.47    1006.00
 57.57     908.00
 57.67     810.00
 57.77     664.73
 57.87     620.58
 57.97     620.97
 58.07     647.08
 58.17     727.00
 58.27     758.07
 58.37     845.63
 58.47     893.00
 58.57    1062.00
 58.67    1197.04
 58.77    1333.00
 58.87    1423.88
 58.97    1430.00
 59.07    1442.00
 59.17    1423.63
 59.27    1337.87
 59.37    1338.83
 59.47    1236.00
 59.57    1176.08
 59.67    1177.00
 59.77    1172.00
 59.87    1229.00
 59.97    1359.00
 60.07    1426.70
 60.17    1596.00
 60.27    1575.00
 60.37    1543.00
 60.47    1378.00
 60.57    1177.64
 60.67    1113.00
 60.77     919.00
 60.87     758.00
 60.97     673.58
 61.07     683.00
 61.17     611.29
 61.27     653.00
 61.37     665.47
 61.47     709.00
 61.57     724.78
 61.67     887.00
 61.77     930.15
 61.87    1083.00
 61.97    1216.00
 62.07    1359.00
 62.17    1399.00
 62.27    1333.00
 62.37    1335.74
 62.47    1139.00
 62.57    1085.90
 62.67     853.00
 62.77     735.00
 62.87     684.00
 62.97     686.17
 63.07     577.26
 63.17     601.00
 63.27     569.00
 63.37     526.48
 63.47     555.00
 63.57     559.36
 63.67     543.07
 63.77     665.00
 63.87     696.00
 63.97     680.00
 64.07     743.08
 64.17     750.43
 64.27     861.00
 64.37     849.63
 64.47    1007.00
 64.57    1045.00
 64.67    1010.00
 64.77     964.53
 64.87     989.00
 64.97     940.00
 65.07     871.84
 65.17     758.00
 65.27     679.00
 65.37     656.00
 65.47     625.88
 65.57     625.60
 65.67     652.89
 65.77     551.08
 65.87     582.53
 65.97     545.00
 66.07     609.00
 66.17     537.79
 66.27     550.00
 66.37     545.83
 66.47     565.12
 66.57     523.00
 66.67     577.00
 66.77     615.00
 66.87     567.00
 66.97     599.80
 67.07     658.00
 67.17     719.08
 67.27     808.00
 67.37     899.00
 67.47    1132.74
 67.57    1248.81
 67.67    1581.00
 67.77    1794.00
 67.87    2161.88
 67.97    2317.00
 68.07    2380.74
 68.17    2359.55
 68.27    2346.00
 68.37    2150.00
 68.47    1800.48
 68.57    1630.00
 68.67    1256.00
 68.77    1107.93
 68.87     916.00
 68.97     784.93
 69.07     729.81
 69.17     668.56
 69.27     611.00
 69.37     593.00
 69.47     585.00
 69.57     569.00
 69.67     591.00
 69.77     602.00
 69.87     575.00
 69.97     584.00
 70.07     603.00
 70.17     584.90
 70.27     596.99
 70.37     584.00
 70.47     582.00
 70.57     578.00
 70.67     622.00
 70.77     593.08
 70.87     592.00
 70.97     606.00
 71.07     641.00
 71.17     754.00
 71.27     830.00
 71.37     898.83
 71.47    1074.00
 71.57    1253.00
 71.67    1511.00
 71.77    1653.00
 71.87    1803.00
 71.97    1934.46
 72.07    2019.23
 72.17    1850.70
 72.27    1789.00
 72.37    1600.00
 72.47    1458.00
 72.57    1267.99
 72.67    1149.00
 72.77     996.53
 72.87     920.24
 72.97     845.00
 73.07     721.00
 73.17     808.63
 73.27     756.05
 73.37     725.23
 73.47     632.00
 73.57     650.00
 73.67     594.00
 73.77     546.00
 73.87     591.00
 73.97     572.00
 74.07     596.00
 74.17     603.98
 74.27     565.35
 74.37     545.29
 74.47     579.57
 74.57     599.79
 74.67     582.84
 74.77     624.00
 74.87     563.47
 74.97     624.00
 75.07     586.00
 75.17     568.00
 75.27     572.00
 75.37     568.88
 75.47     565.00
 75.57     518.15
 75.67     589.91
 75.77     606.00
 75.87     607.90
 75.97     564.40
 76.07     635.00
 76.17     669.18
 76.27     681.00
 76.37     714.15
 76.47     753.00
 76.57     674.00
 76.67     689.85
 76.77     697.00
 76.87     687.07
 76.97     657.00
 77.07     644.62
 77.17     578.00
 77.27     587.00
 77.37     549.99
 77.47     587.74
 77.57     581.00
 77.67     576.67
 77.77     562.00
 77.87     494.00
 77.97     514.00
 78.07     542.62
 78.17     533.00
 78.27     485.00
 78.37     502.78
 78.47     551.06
 78.57     539.70
 78.67     519.00
 78.77     534.65
 78.87     488.00
 78.97     546.87
 79.07     537.00
 79.17     505.99
 79.27     520.00
 79.37     543.13
 79.47     496.22
 79.57     513.00
 79.67     518.26
 79.77     510.30
 79.87     563.00
 79.97     506.52
 80.07     533.00
 80.17     522.60
 80.27     563.00
 80.37     585.00
 80.47     557.00
 80.57     564.00
 80.67     651.00
 80.77     616.03
 80.87     726.41
 80.97     656.00
 81.07     734.00
 81.17     696.60
 81.27     741.00
 81.37     760.00
 81.47     714.06
 81.57     769.00
 81.67     766.00
 81.77     738.40
 81.87     747.00
 81.97     715.00
 82.07     701.83
 82.17     605.88
 82.27     626.55
 82.37     589.00
 82.47     631.00
 82.57     599.45
 82.67     564.00
 82.77     530.98
 82.87     566.00
 82.97     575.89
 83.07     599.08
 83.17     522.47
 83.27     573.00
 83.37     526.07
 83.47     515.00
 83.57     555.75
 83.67     591.11
 83.77     562.00
 83.87     548.94
 83.97     594.93
 84.07     600.00
 84.17     601.00
 84.27     606.00
 84.37     552.00
 84.47     516.00
 84.57     545.23
 84.67     574.63
 84.77     544.00
 84.87     516.38
 84.97     536.65
 85.07     520.00
 85.17     577.00
 85.27     517.00
 85.37     536.00
 85.47     501.10
 85.57     520.38
 85.67     509.00
 85.77     488.00
 85.87     543.00
 85.97     490.00
 86.07     537.00
 86.17     537.00
 86.27     569.09
 86.37     560.00
 86.47     505.00
 86.57     599.61
 86.67     560.72
 86.77     567.91
 86.87     601.00
 86.97     646.00
 87.07     622.41
 87.17     657.45
 87.27     673.78
 87.37     657.00
 87.47     678.00
 87.57     666.00
 87.67     686.00
 87.77     607.00
 87.87     627.56
 87.97     655.00
 88.07     579.34
 88.17     636.00
 88.27     609.00
 88.37     557.00
 88.47     553.55
 88.57     583.00
 88.67     557.00
 88.77     583.00
 88.87     595.00
 88.97     576.92
 89.07     590.00
 89.17     600.63
 89.27     645.05
 89.37     578.00
 89.47     585.00
 89.57     640.00
 89.67     616.00
 89.77     635.05
 89.87     536.69
 89.97     560.00
 90.07     519.00
 90.17     576.00
 90.27     514.00
 90.37     555.00
 90.47     557.00
 90.57     552.05
 90.67     526.00
 90.77     513.39
 90.87     543.39
 90.97     546.00
 91.07     569.24
 91.17     517.15
 91.27     524.00
 91.37     558.00
 91.47     511.00
 91.57     514.00
 91.67     539.46
 91.77     537.00
 91.87     574.24
 91.97     538.00
 92.07     546.00
 92.17     543.41
 92.27     601.00
 92.37     600.00
 92.47     582.04
 92.57     619.00
 92.67     660.00
 92.77     686.00
 92.87     738.94
 92.97     737.00
 93.07     725.67
 93.17     828.00
 93.27     791.48
 93.37     818.00
 93.47     767.45
 93.57     799.00
 93.67     825.56
 93.77     910.00
 93.87     842.00
 93.97     807.52
 94.07     830.00
 94.17     791.81
 94.27     897.00
 94.37     858.00
 94.47     893.00
 94.57     939.00
 94.67     922.00
 94.77     916.10
 94.87     863.03
 94.97     921.05
 95.07     912.00
 95.17     799.33
 95.27     851.00
 95.37     842.00
 95.47     808.58
 95.57     711.00
 95.67     737.00
 95.77     702.42
 95.87     637.00
 95.97     675.88
 96.07     679.00
 96.17     661.26
 96.27     729.00
 96.37     782.00
 96.47     768.02
 96.57     869.50
 96.67     890.00
 96.77    1003.00
 96.87    1134.00
 96.97    1158.00
 97.07    1233.00
 97.17    1352.00
 97.27    1408.00
 97.37    1353.67
 97.47    1391.00
 97.57    1444.53
 97.67    1432.00
 97.77    1463.03
 97.87    1320.00
 97.97    1330.90
 98.07    1207.00
 98.17    1149.00
 98.27    1050.00
 98.37    1031.00
 98.47     940.00
 98.57     949.34
 98.67     817.00
 98.77     874.00
 98.87     789.00
 98.97     776.00
 99.07     820.62
 99.17     880.00
 99.27     883.00
 99.37     979.00
 99.47    1031.00
 99.57    1160.00
 99.67    1207.74
 99.77    1313.00
 99.87    1422.92
 99.97    1442.41
100.07    1599.15
100.17    1707.07
100.27    1857.00
100.37    2029.00
100.47    1917.00
100.57    2027.73
100.67    2135.98
100.77    2053.22
100.87    2046.00
100.97    2076.65
101.07    1957.00
101.17    1900.00
101.27    1749.38
101.37    1733.00
101.47    1561.06
101.57    1537.41
101.67    1434.00
101.77    1339.00
101.87    1297.07
101.97    1187.00
102.07    1148.79
102.17    1112.98
102.27    1165.00
102.37    1122.00
102.47    1136.33
102.57    1037.09
102.67    1066.00
102.77    1026.00
102.87     992.00
102.97     932.08
103.07     960.00
103.17     918.00
103.27     872.00
103.37     785.00
103.47     801.26
103.57     706.24
103.67     736.00
103.77     666.00
103.87     675.00
103.97     634.00
104.07     634.43
104.17     595.00
104.27     585.00
104.37     529.26
104.47     587.90
104.57     583.00
104.67     500.00
104.77     588.00
104.87     544.78
104.97     510.00
105.07     512.88
105.17     539.45
105.27     556.00
105.37     568.00
105.47     532.00
105.57     576.36
105.67     538.14
105.77     508.58
105.87     598.17
105.97     567.00
106.07     567.85
106.17     612.00
106.27     572.00
106.37     583.00
106.47     639.00
106.57     609.00
106.67     645.00
106.77     659.00
106.87     607.00
106.97     630.00
107.07     733.12
107.17     694.00
107.27     670.00
107.37     670.16
107.47     665.00
107.57     679.00
107.67     684.00
107.77     702.00
107.87     652.00
107.97     751.41
108.07     737.92
108.17     672.00
108.27     691.00
108.37     731.00
108.47     692.00
108.57     714.00
108.67     660.00
108.77     659.00
108.87     707.76
108.97     682.00
109.07     653.00
109.17     682.00
109.27     705.00
109.37     674.00
109.47     636.00
109.57     607.28
109.67     621.00
109.77     619.00
109.87     566.61
109.97     579.20
110.07     597.00
110.17     573.00
110.27     568.00
110.37     599.00
110.47     577.00
110.57     514.82
110.67     572.00
110.77     616.00
110.87     555.00
110.97     561.09
111.07     579.00
111.17     529.15
111.27     606.00
111.37     517.00
111.47     540.00
111.57     536.00
111.67     550.00
111.77     532.43
111.87     556.00
111.97     557.00
112.07     586.00
112.17     565.00
112.27     573.00
112.37     534.00
112.47     617.00
112.57     586.00
112.67     556.00
112.77     588.00
112.87     615.00
112.97     628.00
113.07     616.00
113.17     647.00
113.27     732.00
113.37     740.00
113.47     714.54
113.57     765.00
113.67     824.32
113.77     796.57
113.87     861.00
113.97     894.00
114.07     936.00
114.17    1008.77
114.27    1095.00
114.37    1161.00
114.47    1263.41
114.57    1359.25
114.67    1570.00
114.77    1682.32
114.87    1864.00
114.97    2022.00
115.07    2339.00
115.17    2649.00
115.27    2899.00
115.37    3092.57
115.47    3412.45
115.57    3788.00
115.67    4194.00
115.77    4446.54
115.87    4832.00
115.97    5321.73
116.07    5691.00
116.17    5980.00
116.27    6277.00
116.37    6492.85
116.47    6624.00
116.57    6673.00
116.67    6961.30
116.77    6904.00
116.87    6819.00
116.97    6736.31
117.07    6402.00
117.17    6046.00
117.27    5823.82
117.37    5508.01
117.47    4916.72
117.57    4573.00
117.67    4155.00
117.77    3995.00
117.87    3438.40
117.97    3082.53
118.07    2866.00
118.17    2499.00
118.27    2308.33
118.37    1962.55
118.47    1745.00
118.57    1593.82
118.67    1402.00
118.77    1302.00
118.87    1157.43
118.97     986.00
119.07     988.17
119.17     917.00
119.27     815.63
119.37     786.00
119.47     786.00
119.57     722.00
119.67     715.00
119.77     633.78
119.87     656.00
119.97     583.00
120.07     592.00
120.17     603.71
120.27     579.00
120.37     609.00
120.47     581.00
120.57     589.00
120.67     576.00
120.77     531.15
120.87     588.00
120.97     546.00
121.07     576.71
121.17     617.68
121.27     546.98
121.37     566.00
121.47     553.00
121.57     570.00
121.67     601.00
121.77     634.00
121.87     552.70
121.97     604.50
122.07     586.13
122.17     678.00
122.27     642.00
122.37     633.98
122.47     604.00
122.57     599.00
122.67     616.00
122.77     585.51
122.87     681.40
122.97     633.96
123.07     640.00
123.17     650.00
123.27     637.00
123.37     641.81
123.47     596.00
123.57     651.40
123.67     643.00
123.77     641.00
123.87     625.00
123.97     630.98
124.07     575.99
124.17     620.82
124.27     582.00
124.37     601.00
124.47     568.00
124.57     583.00
124.67     609.00
124.77     620.00
124.87     612.00
124.97     563.25
