  9.97     577.00
 10.07     561.78
 10.17     538.22
 10.27     611.00
 10.37     616.00
 10.47     570.00
 10.57     619.03
 10.67     601.91
 10.77     590.00
 10.87     595.74
 10.97     547.88
 11.07     596.00
 11.17     600.00
 11.27     585.43
 11.37     595.00
 11.47     607.00
 11.57     575.85
 11.67     607.00
 11.77     667.00
 11.87     639.00
 11.97     644.00
 12.07     634.48
 12.17     714.00
 12.27     698.40
 12.37     610.00
 12.47     629.00
 12.57     602.00
 12.67     572.00
 12.77     564.00
 12.87     551.81
 12.97     544.00
 13.07     575.00
 13.17     579.00
 13.27     559.13
 13.37     533.00
 13.47     573.00
 13.57     529.00
 13.67     542.10
 13.77     538.84
 13.87     527.00
 13.97     560.14
 14.07     606.55
 14.17     575.64
 14.27     578.19
 14.37     541.00
 14.47     566.47
 14.57     564.00
 14.67     575.38
 14.77     576.00
 14.87     534.00
 14.97     544.01
 15.07     520.00
 15.17     573.00
 15.27     539.00
 15.37     606.90
 15.47     566.00
 15.57     551.35
 15.67     564.00
 15.77     531.48
 15.87     608.00
 15.97     559.00
 16.07     536.51
 16.17     547.00
 16.27     560.00
 16.37     539.00
 16.47     508.00
 16.57     564.00
 16.67     530.00
 16.77     556.00
 16.87     611.37
 16.97     542.00
 17.07     596.06
 17.17     569.00
 17.27     605.73
 17.37     561.43
 17.47     588.00
 17.57     565.76
 17.67     590.00
 17.77     591.32
 17.87     564.00
 17.97     555.00
 18.07     533.00
 18.17     549.00
 18.27     586.68
 18.37     554.00
 18.47     535.24
 18.57     577.00
 18.67     553.00
 18.77     579.54
 18.87     574.65
 18.97     552.00
 19.07     551.99
 19.17     563.00
 19.27     593.90
 19.37     603.00
 19.47     542.00
 19.57     551.00
 19.67     562.45
 19.77     545.00
 19.87     529.00
 19.97     524.00
 20.07     573.00
 20.17     512.00
 20.27     587.00
 20.37     577.00
 20.47     573.51
 20.57     512.00
 20.67     557.00
 20.77     539.00
 20.87     534.00
 20.97     575.00
 21.07     579.98
 21.17     575.00
 21.27     588.53
 21.37     532.45
 21.47     525.00
 21.57     528.00
 21.67     563.00
 21.77     543.00
 21.87     596.00
 21.97     595.00
 22.07     527.50
 22.17     601.00
 22.27     538.00
 22.37     514.52
 22.47     537.00
 22.57     589.84
 22.67     499.00
 22.77     530.00
 22.87     511.24
 22.97     553.00
 23.07     546.00
 23.17     512.42
 23.27     568.00
 23.37     553.78
 23.47     555.27
 23.57     533.00
 23.67     585.00
 23.77     572.00
 23.87     558.79
 23.97     526.00
 24.07     566.34
 24.17     502.65
 24.27     564.00
 24.37     535.65
 24.47     585.24
 24.57     624.81
 24.67     619.36
 24.77     616.00
 24.87     592.00
 24.97     560.14
 25.07     586.00
 25.17     600.64
 25.27     531.00
 25.37     534.86
 25.47     577.38
 25.57     547.00
 25.67     604.00
 25.77     500.00
 25.87     533.00
 25.97     520.00
 26.07     537.40
 26.17     522.69
 26.27     573.00
 26.37     530.00
 26.47     582.42
 26.57     531.00
 26.67     564.78
 26.77     499.00
 26.87     578.00
 26.97     537.00
 27.07     554.00
 27.17     513.89
 27.27     532.40
 27.37     608.00
 27.47     582.41
 27.57     576.25
 27.67     555.00
 27.77     529.53
 27.87     617.00
 27.97     654.00
 28.07     815.37
 28.17     894.00
 28.27     920.00
 28.37     911.00
 28.47     786.00
 28.57     704.00
 28.67     685.00
 28.77     693.07
 28.87     766.00
 28.97     770.00
 29.07     805.00
 29.17     675.00
 29.27     599.00
 29.37     646.55
 29.47     602.00
 29.57     543.07
 29.67     610.74
 29.77     611.00
 29.87     568.00
 29.97     574.00
 30.07     555.89
 30.17     556.00
 30.27     584.00
 30.37     564.87
 30.47     572.00
 30.57     615.00
 30.67     607.00
 30.77     551.39
 30.87     579.88
 30.97     604.00
 31.07     621.92
 31.17     593.00
 31.27     548.45
 31.37     555.00
 31.47     549.00
 31.57     530.00
 31.67     550.00
 31.77     564.00
 31.87     521.00
 31.97     508.00
 32.07     520.42
 32.17     537.00
 32.27     539.00
 32.37     525.00
 32.47     518.00
 32.57     529.00
 32.67     553.00
 32.77     538.00
 32.87     618.00
 32.97     527.00
 33.07     492.55
 33.17     535.00
 33.27     549.00
 33.37     552.00
 33.47     516.56
 33.57     607.00
 33.67     613.00
 33.77     739.00
 33.87     817.52
 33.97     975.85
 34.07    1108.00
 34.17     991.39
 34.27     871.00
 34.37     794.00
 34.47     636.00
 34.57     608.00
 34.67     560.93
 34.77     552.49
 34.87     525.00
 34.97     520.92
 35.07     503.00
 35.17     513.00
 35.27     505.88
 35.37     514.00
 35.47     483.00
 35.57     504.00
 35.67     510.42
 35.77     513.97
 35.87     561.00
 35.97     486.08
 36.07     508.86
 36.17     540.39
 36.27     519.94
 36.37     490.35
 36.47     527.00
 36.57     557.00
 36.67     545.81
 36.77     482.00
 36.87     509.00
 36.97     552.13
 37.07     491.00
 37.17     501.90
 37.27     550.12
 37.37     548.57
 37.47     531.00
 37.57     559.97
 37.67     504.00
 37.77     535.00
 37.87     529.00
 37.97     509.95
 38.07     503.13
 38.17     520.00
 38.27     558.51
 38.37     523.00
 38.47     538.00
 38.57     518.00
 38.67     510.00
 38.77     504.00
 38.87     522.00
 38.97     501.00
 39.07     460.00
 39.17     470.00
 39.27     509.00
 39.37     490.00
 39.47     469.00
 39.57     445.00
 39.67     537.00
 39.77     496.53
 39.87     515.00
 39.97     459.00
 40.07     509.00
 40.17     518.00
 40.27     504.22
 40.37     509.00
 40.47     480.61
 40.57     494.00
 40.67     482.00
 40.77     521.00
 40.87     549.46
 40.97     518.92
 41.07     498.00
 41.17     470.50
 41.27     516.00
 41.37     473.22
 41.47     496.55
 41.57     518.00
 41.67     479.61
 41.77     541.70
 41.87     479.00
 41.97     499.00
 42.07     542.83
 42.17     530.00
 42.27     523.00
 42.37     537.00
 42.47     575.00
 42.57     597.66
 42.67     583.00
 42.77     639.00
 42.87     620.79
 42.97     551.20
 43.07     529.29
 43.17     533.00
 43.27     495.01
 43.37     480.75
 43.47     505.00
 43.57     509.00
 43.67     540.88
 43.77     511.00
 43.87     518.00
 43.97     522.82
 44.07     493.00
 44.17     547.00
 44.27     468.87
 44.37     481.00
 44.47     540.44
 44.57     499.00
 44.67     533.00
 44.77     488.00
 44.87     469.87
 44.97     527.86
 45.07     520.00
 45.17     492.00
 45.27     503.00
 45.37     526.00
 45.47     481.00
 45.57     507.00
 45.67     531.00
 45.77     431.00
 45.87     497.09
 45.97     518.00
 46.07     518.00
 46.17     551.05
 46.27     500.59
 46.37     466.01
 46.47     504.00
 46.57     469.58
 46.67     492.99
 46.77     550.01
 46.87     513.00
 46.97     551.44
 47.07     521.00
 47.17     519.00
 47.27     546.00
 47.37     560.00
 47.47     529.00
 47.57     547.00
 47.67     589.00
 47.77     549.39
 47.87     604.00
 47.97     614.00
 48.07     579.00
 48.17     557.00
 48.27     521.00
 48.37     498.95
 48.47     553.00
 48.57     542.00
 48.67     553.12
 48.77     519.00
 48.87     508.89
 48.97     532.00
 49.07     619.45
 49.17     589.00
 49.27     648.00
 49.37     621.00
 49.47     690.00
 49.57     791.00
 49.67     888.00
 49.77    1152.00
 49.87    1404.80
 49.97    1857.21
 50.07    2129.00
 50.17    2419.96
 50.27    2538.32
 50.37    2269.00
 50.47    1943.79
 50.57    1459.00
 50.67    1093.00
 50.77     831.99
 50.87     767.40
 50.97     638.59
 51.07     597.00
 51.17     584.00
 51.27     591.53
 51.37     583.37
 51.47     556.00
 51.57     607.00
 51.67     522.00
 51.77     575.00
 51.87     582.00
 51.97     529.00
 52.07     577.53
 52.17     547.00
 52.27     587.00
 52.37     541.00
 52.47     585.00
 52.57     563.00
 52.67     614.00
 52.77     550.93
 52.87     653.00
 52.97     696.00
 53.07     810.00
 53.17     879.00
 53.27    1058.00
 53.37    1183.52
 53.47    1160.00
 53.57    1134.91
 53.67    1076.00
 53.77     976.35
 53.87     872.00
 53.97     728.00
 54.07     664.00
 54.17     567.00
 54.27     584.00
 54.37     534.03
 54.47     633.00
 54.57     611.00
 54.67     540.00
 54.77     496.97
 54.87     553.00
 54.97     573.00
 55.07     561.95
 55.17     586.00
 55.27     550.00
 55.37     536.00
 55.47     566.00
 55.57     586.00
 55.67     632.00
 55.77     581.72
 55.87     583.00
 55.97     637.09
 56.07     711.88
 56.17     763.11
 56.27     966.55
 56.37    1058.00
 56.47    1392.00
 56.57    1685.00
 56.67    2095.56
 56.77    2517.00
 56.87    2679.00
 56.97    2585.00
 57.07    2415.00
 57.17    2070.00
 57.27    1611.00
 57.37    1332.00
 57.47    1060.00
 57.57     857.00
 57.67     754.06
 57.77     712.00
 57.87     632.15
 57.97     676.00
 58.07     689.00
 58.17     755.00
 58.27     733.00
 58.37     824.71
 58.47     946.00
 58.57    1108.00
 58.67    1226.00
 58.77    1418.00
 58.87    1515.59
 58.97    1522.00
 59.07    1573.00
 59.17    1506.32
 59.27    1480.00
 59.37    1326.00
 59.47    1264.00
 59.57    1123.75
 59.67    1167.00
 59.77    1181.00
 59.87    1254.00
 59.97    1312.00
 60.07    1427.00
 60.17    1624.00
 60.27    1493.07
 60.37    1511.00
 60.47    1409.00
 60.57    1216.00
 60.67    1029.51
 60.77     980.00
 60.87     815.00
 60.97     681.00
 61.07     664.00
 61.17     634.00
 61.27     615.03
 61.37     670.00
 61.47     656.00
 61.57     789.21
 61.67     895.00
 61.77     961.00
 61.87    1095.69
 61.97    1236.00
 62.07    1327.00
 62.17    1372.67
 62.27    1440.28
 62.37    1288.00
 62.47    1156.00
 62.57    1003.91
 62.67     926.00
 62.77     778.64
 62.87     703.16
 62.97     589.00
 63.07     615.00
 63.17     556.17
 63.27     569.00
 63.37     534.19
 63.47     590.00
 63.57     644.00
 63.67     620.07
 63.77     574.05
 63.87     666.00
 63.97     642.32
 64.07     747.00
 64.17     779.00
 64.27     815.52
 64.37     873.00
 64.47     964.97
 64.57    1036.00
 64.67     960.78
 64.77     968.00
 64.87     924.35
 64.97     899.00
 65.07     845.00
 65.17     789.00
 65.27     733.00
 65.37     660.00
 65.47     690.23
 65.57     628.00
 65.67     590.00
 65.77     613.91
 65.87     535.96
 65.97     577.30
 66.07     601.00
 66.17     552.00
 66.27     505.00
 66.37     524.97
 66.47     597.59
 66.57     520.37
 66.67     601.20
 66.77     589.27
 66.87     633.05
 66.97     601.63
 67.07     663.74
 67.17     672.44
 67.27     736.00
 67.37     847.00
 67.47    1049.00
 67.57    1226.00
 67.67    1533.00
 67.77    1865.00
 67.87    2004.00
 67.97    2245.00
 68.07    2509.30
 68.17    2473.00
 68.27    2296.00
 68.37    2191.00
 68.47    1851.00
 68.57    1577.00
 68.67    1306.27
 68.77    1014.00
 68.87     936.16
 68.97     792.29
 69.07     731.00
 69.17     668.00
 69.27     613.00
 69.37     596.58
 69.47     626.00
 69.57     580.00
 69.67     548.99
 69.77     581.00
 69.87     548.00
 69.97     597.38
 70.07     564.00
 70.17     564.00
 70.27     595.12
 70.37     533.91
 70.47     612.96
 70.57     584.96
 70.67     526.00
 70.77     566.00
 70.87     646.24
 70.97     556.00
 71.07     637.00
 71.17     719.00
 71.27     754.00
 71.37     886.00
 71.47    1054.00
 71.57    1258.00
 71.67    1384.00
 71.77    1633.00
 71.87    1779.00
 71.97    1808.00
 72.07    1985.00
 72.17    1971.00
 72.27    1908.00
 72.37    1660.00
 72.47    1519.70
 72.57    1351.61
 72.67    1203.00
 72.77     992.00
 72.87     958.00
 72.97     842.00
 73.07     917.05
 73.17     729.00
 73.27     676.00
 73.37     678.00
 73.47     644.00
 73.57     596.00
 73.67     613.00
 73.77     588.92
 73.87     631.11
 73.97     599.21
 74.07     574.41
 74.17     628.00
 74.27     645.00
 74.37     573.87
 74.47     633.00
 74.57     663.00
 74.67     599.33
 74.77     637.00
 74.87     609.00
 74.97     559.00
 75.07     627.00
 75.17     591.00
 75.27     535.00
 75.37     583.00
 75.47     507.26
 75.57     581.00
 75.67     591.80
 75.77     549.00
 75.87     555.00
 75.97     586.21
 76.07     624.24
 76.17     638.81
 76.27     678.13
 76.37     710.99
 76.47     708.00
 76.57     672.00
 76.67     738.50
 76.77     652.36
 76.87     714.31
 76.97     669.00
 77.07     589.63
 77.17     563.92
 77.27     572.00
 77.37     569.00
 77.47     507.00
 77.57     552.26
 77.67     549.00
 77.77     545.00
 77.87     536.39
 77.97     493.00
 78.07     534.00
 78.17     512.00
 78.27     505.00
 78.37     551.76
 78.47     517.81
 78.57     527.00
 78.67     489.00
 78.77     539.89
 78.87     585.00
 78.97     531.00
 79.07     524.00
 79.17     531.17
 79.27     540.38
 79.37     537.00
 79.47     559.04
 79.57     495.55
 79.67     560.18
 79.77     565.21
 79.87     552.77
 79.97     515.00
 80.07     522.00
 80.17     529.00
 80.27     608.00
 80.37     588.52
 80.47     602.00
 80.57     609.65
 80.67     651.00
 80.77     644.00
 80.87     686.00
 80.97     671.96
 81.07     703.00
 81.17     764.52
 81.27     758.86
 81.37     798.50
 81.47     713.69
 81.57     771.95
 81.67     713.01
 81.77     700.83
 81.87     676.12
 81.97     707.48
 82.07     687.00
 82.17     653.36
 82.27     659.88
 82.37     621.01
 82.47     604.00
 82.57     616.00
 82.67     561.00
 82.77     514.00
 82.87     589.80
 82.97     560.00
 83.07     550.00
 83.17     517.82
 83.27     516.10
 83.37     518.00
 83.47     546.00
 83.57     559.00
 83.67     561.00
 83.77     584.00
 83.87     578.48
 83.97     564.00
 84.07     498.00
 84.17     592.00
 84.27     547.76
 84.37     525.95
 84.47     574.34
 84.57     545.00
 84.67     565.00
 84.77     557.91
 84.87     552.00
 84.97     521.86
 85.07     492.71
 85.17     530.00
 85.27     550.00
 85.37     528.00
 85.47     548.00
 85.57     489.00
 85.67     531.00
 85.77     506.00
 85.87     540.00
 85.97     505.00
 86.07     515.00
 86.17     557.62
 86.27     539.20
 86.37     488.00
 86.47     522.00
 86.57     511.00
 86.67     547.43
 86.77     587.00
 86.87     560.43
 86.97     602.00
 87.07     616.00
 87.17     592.72
 87.27     638.00
 87.37     661.00
 87.47     639.31
 87.57     613.12
 87.67     663.06
 87.77     612.00
 87.87     626.00
 87.97     587.00
 88.07     594.69
 88.17     582.06
 88.27     584.00
 88.37     549.00
 88.47     560.74
 88.57     570.00
 88.67     564.00
 88.77     617.00
 88.87     623.00
 88.97     589.00
 89.07     577.94
 89.17     604.06
 89.27     631.00
 89.37     591.00
 89.47     589.00
 89.57     525.00
 89.67     602.49
 89.77     594.00
 89.87     591.90
 89.97     601.00
 90.07     574.00
 90.17     551.57
 90.27     535.95
 90.37     502.00
 90.47     542.00
 90.57     581.00
 90.67     518.98
 90.77     506.00
 90.87     499.00
 90.97     500.98
 91.07     539.00
 91.17     512.12
 91.27     570.22
 91.37     493.58
 91.47     544.00
 91.57     541.00
 91.67     567.00
 91.77     533.00
 91.87     570.00
 91.97     525.45
 92.07     546.00
 92.17     567.00
 92.27     570.00
 92.37     562.95
 92.47     656.00
 92.57     689.70
 92.67     684.87
 92.77     642.95
 92.87     689.00
 92.97     812.00
 93.07     760.90
 93.17     713.27
 93.27     806.51
 93.37     764.46
 93.47     829.00
 93.57     838.00
 93.67     807.19
 93.77     816.00
 93.87     834.00
 93.97     825.00
 94.07     840.00
 94.17     868.00
 94.27     827.95
 94.37     812.15
 94.47     908.00
 94.57     908.00
 94.67     867.96
 94.77     951.00
 94.87     891.53
 94.97     886.00
 95.07     893.00
 95.17     852.00
 95.27     791.00
 95.37     830.00
 95.47     790.00
 95.57     758.00
 95.67     737.00
 95.77     710.00
 95.87     699.00
 95.97     720.58
 96.07     723.69
 96.17     734.08
 96.27     686.82
 96.37     756.00
 96.47     759.00
 96.57     855.00
 96.67     925.00
 96.77     956.00
 96.87    1084.00
 96.97    1124.00
 97.07    1173.00
 97.17    1249.51
 97.27    1375.00
 97.37    1366.58
 97.47    1388.00
 97.57    1401.00
 97.67    1374.31
 97.77    1327.00
 97.87    1408.00
 97.97    1236.84
 98.07    1259.00
 98.17    1112.00
 98.27    1093.10
 98.37    1029.02
 98.47     978.00
 98.57     873.00
 98.67     832.85
 98.77     821.32
 98.87     804.02
 98.97     811.00
 99.07     807.00
 99.17     807.16
 99.27     862.00
 99.37     905.00
 99.47     995.00
 99.57    1070.98
 99.67    1131.00
 99.77    1355.00
 99.87    1373.00
 99.97    1530.00
100.07    1623.00
100.17    1675.00
100.27    1847.00
100.37    2039.00
100.47    1971.59
100.57    2074.00
100.67    2125.00
100.77    2136.00
100.87    2098.00
100.97    2102.84
101.07    1931.00
101.17    1925.00
101.27    1823.30
101.37    1716.00
101.47    1564.50
101.57    1542.00
101.67    1462.00
101.77    1395.40
101.87    1249.23
101.97    1189.29
102.07    1154.00
102.17    1160.00
102.27    1189.00
102.37    1064.93
102.47    1042.00
102.57    1038.00
102.67    1007.58
102.77    1089.73
102.87     936.00
102.97     990.82
103.07     963.00
103.17     854.00
103.27     816.00
103.37     857.00
103.47     759.34
103.57     747.00
103.67     700.00
103.77     666.00
103.87     593.23
103.97     596.00
104.07     582.16
104.17     620.15
104.27     534.60
104.37     589.08
104.47     564.00
104.57     506.00
104.67     512.00
104.77     511.93
104.87     578.17
104.97     503.55
105.07     496.34
105.17     520.00
105.27     502.00
105.37     511.00
105.47     548.00
105.57     560.00
105.67     531.00
105.77     558.00
105.87     534.72
105.97     546.19
106.07     614.98
106.17     626.94
106.27     593.00
106.37     577.00
106.47     635.00
106.57     638.04
106.67     661.15
106.77     634.16
106.87     696.49
106.97     650.00
107.07     653.00
107.17     679.00
107.27     667.00
107.37     751.66
107.47     659.00
107.57     683.00
107.67     715.09
107.77     685.01
107.87     685.72
107.97     678.00
108.07     693.00
108.17     672.86
108.27     696.00
108.37     668.00
108.47     693.00
108.57     684.00
108.67     703.30
108.77     745.00
108.87     649.42
108.97     642.36
109.07     631.01
109.17     665.65
109.27     678.00
109.37     658.00
109.47     653.00
109.57     648.00
109.67     636.00
109.77     636.00
109.87     662.00
109.97     684.00
110.07     637.00
110.17     555.00
110.27     601.92
110.37     576.71
110.47     575.00
110.57     511.00
110.67     545.00
110.77     523.00
110.87     560.00
110.97     575.00
111.07     527.80
111.17     558.00
111.27     503.00
111.37     534.00
111.47     514.00
111.57     553.14
111.67     583.00
111.77     590.00
111.87     543.00
111.97     522.50
112.07     565.00
112.17     557.00
112.27     593.00
112.37     629.66
112.47     568.00
112.57     531.00
112.67     665.45
112.77     673.61
112.87     627.40
112.97     666.00
113.07     756.00
113.17     738.00
113.27     788.00
113.37     819.00
113.47     789.00
113.57     790.00
113.67     918.00
113.77     859.02
113.87     987.15
113.97     983.00
114.07    1108.21
114.17    1098.00
114.27    1152.35
114.37    1223.00
114.47    1402.09
114.57    1407.19
114.67    1537.00
114.77    1755.00
114.87    2014.00
114.97    2002.50
115.07    2377.10
115.17    2537.00
115.27    2892.00
115.37    3074.56
115.47    3424.00
115.57    3884.44
115.67    4085.00
115.77    4457.00
115.87    4855.21
115.97    5094.00
116.07    5528.00
116.17    6197.25
116.27    6466.67
116.37    6591.00
116.47    6828.00
116.57    6930.00
116.67    6999.07
116.77    6964.00
116.87    6887.00
116.97    6661.00
117.07    6346.41
117.17    5988.90
117.27    5805.28
117.37    5283.00
117.47    5093.00
117.57    4628.00
117.67    4447.00
117.77    4133.00
117.87    3638.00
117.97    3270.00
118.07    2746.68
118.17    2417.91
118.27    2184.00
118.37    2015.00
118.47    1746.00
118.57    1512.00
118.67    1352.00
118.77    1213.00
118.87    1074.00
118.97     999.00
119.07     913.00
119.17     833.00
119.27     867.38
119.37     804.49
119.47     786.42
119.57     713.00
119.67     604.00
119.77     666.00
119.87     625.38
119.97     617.00
120.07     564.00
120.17     646.00
120.27     602.00
120.37     598.00
120.47     603.00
120.57     565.00
120.67     574.00
120.77     614.44
120.87     610.00
120.97     594.00
121.07     558.00
121.17     611.92
121.27     637.00
121.37     537.00
121.47     613.71
121.57     545.65
121.67     576.12
121.77     606.02
121.87     574.24
121.97     598.30
122.07     599.12
122.17     640.00
122.27     624.00
122.37     592.00
122.47     641.00
122.57     656.08
122.67     655.00
122.77     633.00
122.87     631.00
122.97     596.96
123.07     600.31
123.17     671.00
123.27     679.82
123.37     678.00
123.47     597.54
123.57     662.19
123.67     579.77
123.77     636.00
123.87     666.22
123.97     657.00
124.07     670.00
124.17     643.08
124.27     609.00
124.37     555.93
124.47     561.59
124.57     537.00
124.67     599.49
124.77     565.63
124.87     535.89
124.97     604.00
