  9.97     613.00
 10.07     566.00
 10.17     572.02
 10.27     535.67
 10.37     612.00
 10.47     549.79
 10.57     531.26
 10.67     594.00
 10.77     562.00
 10.87     591.00
 10.97     553.64
 11.07     542.00
 11.17     591.88
 11.27     566.00
 11.37     574.00
 11.47     581.79
 11.57     588.00
 11.67     619.00
 11.77     619.00
 11.87     596.00
 11.97     651.00
 12.07     717.64
 12.17     657.67
 12.27     659.00
 12.37     659.00
 12.47     620.00
 12.57     635.26
 12.67     555.04
 12.77     580.00
 12.87     539.00
 12.97     573.00
 13.07     534.00
 13.17     574.43
 13.27     568.00
 13.37     586.10
 13.47     598.37
 13.57     547.18
 13.67     597.90
 13.77     578.00
 13.87     552.12
 13.97     530.00
 14.07     542.64
 14.17     601.51
 14.27     576.00
 14.37     555.00
 14.47     574.25
 14.57     558.25
 14.67     594.00
 14.77     539.00
 14.87     573.00
 14.97     558.94
 15.07     539.79
 15.17     567.00
 15.27     556.00
 15.37     584.00
 15.47     609.00
 15.57     567.00
 15.67     529.00
 15.77     565.00
 15.87     559.00
 15.97     642.00
 16.07     550.00
 16.17     552.00
 16.27     534.00
 16.37     564.54
 16.47     597.00
 16.57     537.00
 16.67     560.00
 16.77     570.00
 16.87     526.86
 16.97     571.40
 17.07     589.32
 17.17     554.76
 17.27     602.80
 17.37     593.16
 17.47     535.00
 17.57     576.00
 17.67     609.00
 17.77     555.00
 17.87     539.00
 17.97     582.61
 18.07     532.00
 18.17     542.05
 18.27     570.00
 18.37     565.00
 18.47     553.00
 18.57     566.00
 18.67     563.00
 18.77     584.00
 18.87     563.07
 18.97     549.00
 19.07     545.00
 19.17     578.00
 19.27     539.55
 19.37     565.00
 19.47     600.00
 19.57     564.10
 19.67     588.95
 19.77     566.00
 19.87     571.10
 19.97     594.00
 20.07     563.00
 20.17     549.00
 20.27     564.00
 20.37     565.00
 20.47     581.38
 20.57     543.00
 20.67     517.00
 20.77     516.77
 20.87     541.00
 20.97     579.54
 21.07     543.00
 21.17     556.00
 21.27     589.19
 21.37     522.00
 21.47     536.00
 21.57     510.48
 21.67     565.00
 21.77     569.00
 21.87     513.61
 21.97     597.22
 22.07     554.00
 22.17     574.99
 22.27     587.00
 22.37     558.79
 22.47     579.00
 22.57     552.49
 22.67     506.69
 22.77     535.00
 22.87     530.00
 22.97     585.94
 23.07     548.13
 23.17     558.00
 23.27     562.00
 23.37     509.00
 23.47     508.22
 23.57     535.00
 23.67     518.00
 23.77     531.00
 23.87     504.00
 23.97     532.00
 24.07     593.30
 24.17     556.00
 24.27     543.89
 24.37     597.00
 24.47     616.00
 24.57     577.00
 24.67     603.00
 24.77     599.00
 24.87     627.46
 24.97     589.00
 25.07     594.89
 25.17     585.22
 25.27     574.77
 25.37     552.00
 25.47     550.00
 25.57     588.00
 25.67     520.88
 25.77     543.66
 25.87     605.00
 25.97     584.00
 26.07     590.00
 26.17     554.71
 26.27     533.00
 26.37     519.00
 26.47     552.00
 26.57     578.00
 26.67     546.17
 26.77     535.00
 26.87     536.00
 26.97     525.00
 27.07     570.00
 27.17     551.00
 27.27     609.00
 27.37     558.00
 27.47     598.00
 27.57     525.51
 27.67     575.00
 27.77     541.96
 27.87     624.00
 27.97     662.19
 28.07     805.35
 28.17     922.00
 28.27     998.84
 28.37     940.22
 28.47     845.27
 28.57     702.00
 28.67     695.00
 28.77     706.32
 28.87     760.00
 28.97     821.68
 29.07     763.06
 29.17     702.00
 29.27     695.00
 29.37     597.00
 29.47     581.00
 29.57     554.00
 29.67     599.13
 29.77     587.00
 29.87     588.00
 29.97     534.53
 30.07     570.09
 30.17     585.88
 30.27     602.00
 30.37     580.19
 30.47     565.29
 30.57     519.00
 30.67     556.00
 30.77     603.00
 30.87     613.30
 30.97     589.00
 31.07     619.00
 31.17     654.00
 31.27     564.00
 31.37     514.88
 31.47     517.00
 31.57     492.80
 31.67     542.15
 31.77     490.47
 31.87     488.62
 31.97     555.00
 32.07     482.83
 32.17     511.11
 32.27     502.83
 32.37     549.38
 32.47     550.00
 32.57     537.00
 32.67     562.00
 32.77     553.00
 32.87     555.00
 32.97     537.00
 33.07     556.00
 33.17     547.00
 33.27     543.26
 33.37     572.60
 33.47     533.86
 33.57     594.26
 33.67     631.00
 33.77     770.00
 33.87     874.34
 33.97     948.30
 34.07    1035.51
 34.17    1057.17
 34.27     874.00
 34.37     738.14
 34.47     669.00
 34.57     594.00
 34.67     545.36
 34.77     551.00
 34.87     513.32
 34.97     529.99
 35.07     499.00
 35.17     493.00
 35.27     494.00
 35.37     522.00
 35.47     534.00
 35.57     543.00
 35.67     553.00
 35.77     532.00
 35.87     482.45
 35.97     507.00
 36.07     548.00
 36.17     479.00
 36.27     519.00
 36.37     489.82
 36.47     474.70
 36.57     514.00
 36.67     540.41
 36.77     466.00
 36.87     519.32
 36.97     544.42
 37.07     548.62
 37.17     522.00
 37.27     491.00
 37.37     543.00
 37.47     530.00
 37.57     484.58
 37.67     559.00
 37.77     504.10
 37.87     531.23
 37.97     540.00
 38.07     540.77
 38.17     501.00
 38.27     510.00
 38.37     484.00
 38.47     503.13
 38.57     528.00
 38.67     506.27
 38.77     509.80
 38.87     510.00
 38.97     493.00
 39.07     525.00
 39.17     504.00
 39.27     537.96
 39.37     514.00
 39.47     506.00
 39.57     505.00
 39.67     495.00
 39.77     463.00
 39.87     532.13
 39.97     506.00
 40.07     506.75
 40.17     481.00
 40.27     525.00
 40.37     472.00
 40.47     516.11
 40.57     476.02
 40.67     476.00
 40.77     486.00
 40.87     519.59
 40.97     516.00
 41.07     490.00
 41.17     536.92
 41.27     491.00
 41.37     473.75
 41.47     519.00
 41.57     546.11
 41.67     500.31
 41.77     498.00
 41.87     512.00
 41.97     498.00
 42.07     500.10
 42.17     519.00
 42.27     503.82
 42.37     514.04
 42.47     555.00
 42.57     588.00
 42.67     588.00
 42.77     587.27
 42.87     548.00
 42.97     507.00
 43.07     539.88
 43.17     501.60
 43.27     531.79
 43.37     548.24
 43.47     515.00
 43.57     497.00
 43.67     502.00
 43.77     523.00
 43.87     508.00
 43.97     523.00
 44.07     472.00
 44.17     501.00
 44.27     476.17
 44.37     543.95
 44.47     468.29
 44.57     519.00
 44.67     531.00
 44.77     532.00
 44.87     535.18
 44.97     528.49
 45.07     538.00
 45.17     525.00
 45.27     460.91
 45.37     491.47
 45.47     511.00
 45.57     532.84
 45.67     496.00
 45.77     557.00
 45.87     463.17
 45.97     518.94
 46.07     481.00
 46.17     492.00
 46.27     463.00
 46.37     519.00
 46.47     463.22
 46.57     500.52
 46.67     472.00
 46.77     510.66
 46.87     514.00
 46.97     509.29
 47.07     526.50
 47.17     558.57
 47.27     506.00
 47.37     495.89
 47.47     544.00
 47.57     549.54
 47.67     610.95
 47.77     628.00
 47.87     618.00
 47.97     544.66
 48.07     598.00
 48.17     586.00
 48.27     555.00
 48.37     559.25
 48.47     536.91
 48.57     527.89
 48.67     527.00
 48.77     528.54
 48.87     530.00
 48.97     502.00
 49.07     579.00
 49.17     574.00
 49.27     601.00
 49.37     716.00
 49.47     711.00
 49.57     849.00
 49.67     889.90
 49.77    1177.00
 49.87    1478.00
 49.97    1823.00
 50.07    2290.21
 50.17    2542.00
 50.27    2559.00
 50.37    2300.00
 50.47    1908.66
 50.57    1322.00
 50.67    1085.55
 50.77     776.00
 50.87     692.42
 50.97     717.57
 51.07     682.00
 51.17     648.00
 51.27     582.29
 51.37     609.62
 51.47     541.20
 51.57     600.80
 51.67     577.00
 51.77     564.00
 51.87     509.33
 51.97     560.44
 52.07     526.00
 52.17     536.00
 52.27     502.00
 52.37     600.00
 52.47     587.00
 52.57     561.94
 52.67     587.00
 52.77     598.00
 52.87     647.00
 52.97     737.00
 53.07     784.03
 53.17     891.00
 53.27    1027.70
 53.37    1100.00
 53.47    1188.00
 53.57    1231.74
 53.67    1113.00
 53.77    1000.00
 53.87     884.10
 53.97     778.89
 54.07     629.00
 54.17     636.32
 54.27     614.50
 54.37     568.00
 54.47     617.00
 54.57     539.00
 54.67     585.69
 54.77     553.00
 54.87     526.00
 54.97     518.44
 55.07     541.00
 55.17     565.00
 55.27     565.00
 55.37     575.00
 55.47     530.00
 55.57     577.16
 55.67     598.00
 55.77     584.56
 55.87     588.00
 55.97     651.00
 56.07     663.00
 56.17     752.34
 56.27     829.00
 56.37    1190.10
 56.47    1373.07
 56.57    1799.25
 56.67    2039.00
 56.77    2519.00
 56.87    2604.74
 56.97    2621.00
 57.07    2428.56
 57.17    2075.36
 57.27    1612.00
 57.37    1298.70
 57.47    1084.00
 57.57     818.00
 57.67     796.17
 57.77     662.35
 57.87     724.00
 57.97     676.00
 58.07     673.00
 58.17     749.50
 58.27     762.10
 58.37     876.00
 58.47     975.00
 58.57    1138.00
 58.67    1260.12
 58.77    1391.00
 58.87    1556.00
 58.97    1529.30
 59.07    1649.00
 59.17    1568.00
 59.27    1455.00
 59.37    1428.00
 59.47    1220.52
 59.57    1166.00
 59.67    1162.53
 59.77    1146.00
 59.87    1241.00
 59.97    1297.00
 60.07    1498.00
 60.17    1567.00
 60.27    1605.00
 60.37    1514.82
 60.47    1361.99
 60.57    1295.00
 60.67    1094.00
 60.77     886.00
 60.87     818.12
 60.97     663.00
 61.07     702.13
 61.17     581.26
 61.27     635.56
 61.37     657.00
 61.47     671.00
 61.57     752.00
 61.67     894.00
 61.77     970.00
 61.87    1054.00
 61.97    1235.25
 62.07    1407.57
 62.17    1343.00
 62.27    1397.02
 62.37    1334.00
 62.47    1186.00
 62.57    1017.00
 62.67     879.00
 62.77     744.00
 62.87     731.61
 62.97     607.00
 63.07     625.00
 63.17     626.00
 63.27     585.00
 63.37     598.23
 63.47     565.00
 63.57     618.00
 63.67     559.00
 63.77     602.00
 63.87     604.00
 63.97     623.00
 64.07     689.00
 64.17     792.00
 64.27     780.73
 64.37     854.50
 64.47     929.84
 64.57    1052.79
 64.67     994.00
 64.77     994.00
 64.87     971.59
 64.97     945.16
 65.07     888.00
 65.17     842.87
 65.27     691.04
 65.37     675.00
 65.47     641.00
 65.57     652.00
 65.67     588.00
 65.77     622.44
 65.87     555.00
 65.97     547.00
 66.07     552.39
 66.17     563.00
 66.27     558.00
 66.37     540.00
 66.47     524.00
 66.57     521.97
 66.67     593.00
 66.77     564.70
 66.87     614.63
 66.97     606.62
 67.07     623.00
 67.17     671.00
 67.27     750.00
 67.37     848.00
 67.47    1021.00
 67.57    1273.23
 67.67    1595.43
 67.77    1807.62
 67.87    2082.00
 67.97    2276.00
 68.07    2345.00
 68.17    2378.00
 68.27    2361.29
 68.37    2103.00
 68.47    1709.89
 68.57    1550.00
 68.67    1257.00
 68.77     999.00
 68.87     921.00
 68.97     741.00
 69.07     720.00
 69.17     673.00
 69.27     611.00
 69.37     600.73
 69.47     604.00
 69.57     602.00
 69.67     588.00
 69.77     598.00
 69.87     607.00
 69.97     581.00
 70.07     587.79
 70.17     532.52
 70.27     608.00
 70.37     560.97
 70.47     574.00
 70.57     536.25
 70.67     567.00
 70.77     567.00
 70.87     542.00
 70.97     615.70
 71.07     631.26
 71.17     732.00
 71.27     746.00
 71.37     879.00
 71.47    1091.00
 71.57    1223.00
 71.67    1397.00
 71.77    1616.00
 71.87    1823.00
 71.97    1920.79
 72.07    1923.00
 72.17    1864.23
 72.27    1808.52
 72.37    1699.00
 72.47    1519.04
 72.57    1328.16
 72.67    1236.00
 72.77    1087.00
 72.87     908.00
 72.97     991.22
 73.07     835.00
 73.17     811.51
 73.27     659.00
 73.37     636.00
 73.47     707.51
 73.57     632.36
 73.67     606.00
 73.77     583.00
 73.87     625.00
 73.97     588.00
 74.07     648.00
 74.17     622.89
 74.27     584.00
 74.37     636.00
 74.47     627.00
 74.57     603.00
 74.67     661.00
 74.77     597.56
 74.87     623.00
 74.97     605.54
 75.07     593.00
 75.17     607.00
 75.27     513.26
 75.37     546.00
 75.47     522.68
 75.57     570.00
 75.67     565.00
 75.77     570.00
 75.87     605.00
 75.97     638.00
 76.07     599.00
 76.17     601.00
 76.27     681.00
 76.37     689.00
 76.47     702.00
 76.57     692.00
 76.67     720.00
 76.77     664.00
 76.87     671.00
 76.97     635.00
 77.07     625.00
 77.17     563.00
 77.27     539.00
 77.37     559.10
 77.47     533.00
 77.57     568.77
 77.67     516.84
 77.77     540.00
 77.87     533.47
 77.97     526.48
 78.07     530.43
 78.17     518.00
 78.27     545.00
 78.37     553.01
 78.47     527.00
 78.57     570.00
 78.67     559.00
 78.77     530.00
 78.87     546.33
 78.97     559.64
 79.07     571.00
 79.17     505.49
 79.27     530.44
 79.37     504.00
 79.47     575.72
 79.57     525.00
 79.67     513.00
 79.77     570.00
 79.87     558.85
 79.97     533.00
 80.07     544.00
 80.17     603.89
 80.27     570.00
 80.37     565.00
 80.47     630.00
 80.57     590.24
 80.67     647.00
 80.77     645.00
 80.87     663.00
 80.97     682.94
 81.07     714.00
 81.17     719.00
 81.27     791.55
 81.37     723.00
 81.47     780.00
 81.57     740.05
 81.67     739.00
 81.77     760.00
 81.87     720.00
 81.97     710.00
 82.07     696.00
 82.17     716.00
 82.27     672.71
 82.37     632.00
 82.47     628.00
 82.57     603.00
 82.67     558.01
 82.77     593.79
 82.87     525.00
 82.97     561.43
 83.07     534.00
 83.17     521.00
 83.27     548.00
 83.37     541.20
 83.47     534.00
 83.57     529.00
 83.67     586.07
 83.77     563.66
 83.87     569.75
 83.97     523.00
 84.07     553.00
 84.17     560.00
 84.27     608.00
 84.37     577.00
 84.47     518.00
 84.57     578.05
 84.67     546.00
 84.77     581.93
 84.87     563.00
 84.97     523.00
 85.07     562.86
 85.17     551.08
 85.27     501.00
 85.37     535.00
 85.47     522.00
 85.57     527.00
 85.67     534.00
 85.77     504.00
 85.87     570.01
 85.97     540.00
 86.07     512.00
 86.17     505.58
 86.27     551.00
 86.37     550.00
 86.47     559.00
 86.57     555.00
 86.67     587.00
 86.77     597.00
 86.87     597.03
 86.97     633.05
 87.07     618.08
 87.17     589.03
 87.27     662.00
 87.37     663.00
 87.47     670.00
 87.57     610.00
 87.67     645.00
 87.77     675.00
 87.87     606.00
 87.97     595.00
 88.07     548.36
 88.17     572.95
 88.27     581.00
 88.37     612.00
 88.47     579.00
 88.57     546.00
 88.67     564.00
 88.77     601.19
 88.87     583.00
 88.97     609.15
 89.07     636.00
 89.17     575.44
 89.27     558.00
 89.37     626.42
 89.47     634.00
 89.57     585.52
 89.67     571.91
 89.77     606.14
 89.87     615.38
 89.97     570.00
 90.07     521.51
 90.17     551.29
 90.27     589.10
 90.37     552.00
 90.47     534.00
 90.57     539.00
 90.67     527.00
 90.77     556.72
 90.87     519.00
 90.97     523.00
 91.07     549.18
 91.17     525.00
 91.27     537.64
 91.37     529.00
 91.47     524.00
 91.57     518.24
 91.67     530.00
 91.77     587.17
 91.87     525.00
 91.97     538.00
 92.07     577.00
 92.17     595.00
 92.27     567.09
 92.37     612.00
 92.47     599.00
 92.57     642.00
 92.67     623.00
 92.77     686.00
 92.87     734.00
 92.97     696.00
 93.07     729.00
 93.17     809.00
 93.27     768.36
 93.37     757.92
 93.47     836.60
 93.57     862.06
 93.67     806.00
 93.77     869.00
 93.87     799.55
 93.97     866.02
 94.07     849.00
 94.17     869.50
 94.27     853.00
 94.37     850.00
 94.47     865.00
 94.57     883.13
 94.67     907.23
 94.77     834.58
 94.87     935.83
 94.97     920.00
 95.07     863.00
 95.17     794.89
 95.27     796.00
 95.37     814.00
 95.47     791.42
 95.57     813.00
 95.67     728.00
 95.77     658.63
 95.87     666.22
 95.97     704.00
 96.07     657.77
 96.17     709.00
 96.27     720.00
 96.37     722.00
 96.47     802.00
 96.57     838.29
 96.67     892.03
 96.77     940.76
 96.87    1053.00
 96.97    1093.42
 97.07    1180.11
 97.17    1306.00
 97.27    1272.00
 97.37    1407.44
 97.47    1369.02
 97.57    1456.00
 97.67    1468.00
 97.77    1397.72
 97.87    1344.00
 97.97    1239.00
 98.07    1232.35
 98.17    1147.00
 98.27    1035.72
 98.37     979.00
 98.47     906.28
 98.57     874.00
 98.67     877.67
 98.77     797.00
 98.87     799.00
 98.97     778.30
 99.07     822.00
 99.17     823.00
 99.27     922.00
 99.37     884.72
 99.47     966.00
 99.57    1055.14
 99.67    1170.00
 99.77    1251.00
 99.87    1349.35
 99.97    1567.00
100.07    1610.00
100.17    1801.00
100.27    1813.94
100.37    2108.00
100.47    1935.62
100.57    2131.17
100.67    2089.00
100.77    2105.03
100.87    2005.59
100.97    2129.00
101.07    2015.51
101.17    1919.00
101.27    1826.00
101.37    1652.00
101.47    1564.29
101.57    1465.68
101.67    1515.00
101.77    1410.52
101.87    1319.00
101.97    1230.00
102.07    1152.00
102.17    1144.00
102.27    1126.00
102.37    1128.00
102.47    1032.96
102.57    1010.00
102.67     998.17
102.77    1070.00
102.87     996.00
102.97     953.24
103.07     928.54
103.17     912.16
103.27     867.00
103.37     815.72
103.47     810.00
103.57     696.39
103.67     725.00
103.77     700.00
103.87     657.19
103.97     582.00
104.07     554.72
104.17     568.66
104.27     559.00
104.37     606.42
104.47     547.00
104.57     571.00
104.67     572.00
104.77     588.00
104.87     510.29
104.97     551.00
105.07     530.00
105.17     549.00
105.27     513.28
105.37     544.00
105.47     552.00
105.57     532.00
105.67     565.00
105.77     581.88
105.87     601.00
105.97     522.30
106.07     596.00
106.17     599.00
106.27     573.00
106.37     557.35
106.47     587.00
106.57     622.14
106.67     650.00
106.77     585.00
106.87     630.00
106.97     656.00
107.07     649.45
107.17     677.34
107.27     678.00
107.37     674.00
107.47     623.00
107.57     657.46
107.67     674.00
107.77     659.00
107.87     659.53
107.97     713.97
108.07     641.83
108.17     743.01
108.27     677.00
108.37     666.28
108.47     654.00
108.57     650.02
108.67     615.00
108.77     671.00
108.87     676.00
108.97     694.32
109.07     728.00
109.17     648.00
109.27     689.90
109.37     713.00
109.47     640.00
109.57     596.00
109.67     650.53
109.77     626.74
109.87     588.00
109.97     613.00
110.07     645.00
110.17     608.92
110.27     532.44
110.37     611.00
110.47     543.00
110.57     580.00
110.67     514.21
110.77     579.44
110.87     541.14
110.97     547.00
111.07     584.00
111.17     524.48
111.27     576.00
111.37     518.80
111.47     509.99
111.57     579.00
111.67     527.86
111.77     572.00
111.87     583.00
111.97     591.00
112.07     612.00
112.17     595.23
112.27     581.49
112.37     602.00
112.47     616.70
112.57     605.00
112.67     675.35
112.77     645.00
112.87     699.04
112.97     709.48
113.07     679.99
113.17     758.64
113.27     741.52
113.37     831.00
113.47     806.00
113.57     803.99
113.67     900.00
113.77     887.00
113.87     970.00
113.97    1027.00
114.07    1055.00
114.17    1061.00
114.27    1264.00
114.37    1370.00
114.47    1366.00
114.57    1439.00
114.67    1626.00
114.77    1675.55
114.87    1955.00
114.97    2117.56
115.07    2391.00
115.17    2499.00
115.27    2920.00
115.37    3095.00
115.47    3328.00
115.57    3741.51
115.67    4108.00
115.77    4375.00
115.87    4640.00
115.97    5287.00
116.07    5345.00
116.17    6033.00
116.27    6398.70
116.37    6690.65
116.47    6934.62
116.57    6940.50
116.67    7051.00
116.77    7014.00
116.87    6696.00
116.97    6935.00
117.07    6517.48
117.17    6173.00
117.27    5658.04
117.37    5359.00
117.47    4970.00
117.57    4691.46
117.67    4310.00
117.77    3983.14
117.87    3561.01
117.97    3168.63
118.07    2914.00
118.17    2611.00
118.27    2238.00
118.37    1894.72
118.47    1785.00
118.57    1537.00
118.67    1370.00
118.77    1207.57
118.87    1107.00
118.97    1086.20
119.07     977.00
119.17     865.00
119.27     795.11
119.37     755.00
119.47     754.58
119.57     671.00
119.67     670.00
119.77     626.00
119.87     634.00
119.97     614.00
120.07     576.89
120.17     573.00
120.27     586.00
120.37     538.00
120.47     553.89
120.57     590.00
120.67     588.48
120.77     567.23
120.87     571.00
120.97     593.25
121.07     552.00
121.17     568.00
121.27     546.63
121.37     585.00
121.47     591.38
121.57     603.00
121.67     576.00
121.77     563.71
121.87     601.00
121.97     595.00
122.07     619.00
122.17     591.50
122.27     616.00
122.37     685.00
122.47     603.00
122.57     670.00
122.67     686.00
122.77     670.00
122.87     671.40
122.97     646.00
123.07     657.00
123.17     634.00
123.27     638.00
123.37     629.00
123.47     633.41
123.57     676.00
123.67     666.00
123.77     638.10
123.87     664.61
123.97     582.00
124.07     661.61
124.17     610.00
124.27     600.65
124.37     573.35
124.47     611.00
124.57     596.00
124.67     593.00
124.77     599.00
124.87     579.00
124.97     606.00
