  9.97     640.00
 10.07     612.50
 10.17     550.00
 10.27     531.83
 10.37     566.00
 10.47     556.00
 10.57     565.12
 10.67     554.86
 10.77     586.00
 10.87     554.79
 10.97     618.00
 11.07     542.28
 11.17     580.00
 11.27     612.58
 11.37     580.00
 11.47     543.28
 11.57     587.00
 11.67     619.00
 11.77     609.00
 11.87     596.83
 11.97     601.93
 12.07     680.00
 12.17     696.00
 12.27     745.57
 12.37     595.00
 12.47     677.32
 12.57     609.00
 12.67     633.00
 12.77     563.00
 12.87     593.76
 12.97     565.00
 13.07     557.00
 13.17     571.00
 13.27     564.00
 13.37     563.00
 13.47     594.74
 13.57     598.15
 13.67     601.00
 13.77     575.00
 13.87     527.00
 13.97     529.00
 14.07     577.65
 14.17     539.00
 14.27     569.00
 14.37     574.00
 14.47     632.00
 14.57     584.00
 14.67     605.25
 14.77     512.00
 14.87     588.00
 14.97     558.00
 15.07     594.33
 15.17     538.00
 15.27     575.00
 15.37     556.00
 15.47     562.53
 15.57     529.52
 15.67     547.00
 15.77     538.85
 15.87     574.76
 15.97     606.53
 16.07     525.90
 16.17     583.00
 16.27     586.00
 16.37     521.61
 16.47     581.14
 16.57     560.00
 16.67     591.00
 16.77     609.81
 16.87     611.00
 16.97     560.35
 17.07     555.00
 17.17     560.00
 17.27     569.00
 17.37     564.00
 17.47     559.00
 17.57     608.43
 17.67     559.00
 17.77     580.00
 17.87     549.26
 17.97     537.00
 18.07     506.00
 18.17     543.00
 18.27     560.00
 18.37     588.00
 18.47     520.00
 18.57     562.34
 18.67     580.11
 18.77     533.00
 18.87     553.00
 18.97     548.00
 19.07     533.81
 19.17     581.00
 19.27     566.00
 19.37     601.00
 19.47     541.00
 19.57     555.74
 19.67     612.00
 19.77     523.00
 19.87     532.00
 19.97     577.00
 20.07     553.00
 20.17     599.00
 20.27     559.62
 20.37     596.15
 20.47     525.14
 20.57     548.00
 20.67     535.20
 20.77     543.37
 20.87     547.00
 20.97     583.00
 21.07     509.00
 21.17     558.81
 21.27     533.00
 21.37     551.00
 21.47     571.85
 21.57     531.72
 21.67     521.35
 21.77     519.00
 21.87     573.00
 21.97     592.00
 22.07     549.79
 22.17     535.00
 22.27     552.00
 22.37     577.64
 22.47     546.00
 22.57     517.00
 22.67     570.52
 22.77     581.08
 22.87     496.00
 22.97     532.00
 23.07     572.00
 23.17     587.00
 23.27     511.00
 23.37     516.72
 23.47     512.20
 23.57     580.04
 23.67     507.00
 23.77     543.00
 23.87     562.00
 23.97     580.00
 24.07     537.36
 24.17     568.89
 24.27     601.46
 24.37     568.00
 24.47     578.00
 24.57     602.00
 24.67     627.00
 24.77     650.00
 24.87     692.00
 24.97     636.00
 25.07     619.00
 25.17     531.00
 25.27     527.00
 25.37     562.00
 25.47     535.39
 25.57     526.00
 25.67     574.00
 25.77     581.00
 25.87     580.59
 25.97     558.13
 26.07     513.82
 26.17     589.00
 26.27     536.00
 26.37     523.49
 26.47     551.00
 26.57     513.97
 26.67     568.65
 26.77     502.85
 26.87     567.83
 26.97     549.00
 27.07     542.00
 27.17     544.00
 27.27     611.00
 27.37     606.00
 27.47     541.00
 27.57     503.63
 27.67     583.00
 27.77     545.00
 27.87     548.47
 27.97     676.78
 28.07     818.97
 28.17     941.00
 28.27     980.00
 28.37     891.15
 28.47     808.00
 28.57     762.00
 28.67     704.00
 28.77     716.92
 28.87     835.00
 28.97     803.00
 29.07     777.00
 29.17     719.00
 29.27     645.00
 29.37     561.90
 29.47     530.00
 29.57     611.44
 29.67     571.00
 29.77     539.84
 29.87     562.00
 29.97     567.00
 30.07     523.07
 30.17     581.00
 30.27     560.80
 30.37     527.85
 30.47     543.00
 30.57     533.00
 30.67     606.00
 30.77     608.00
 30.87     631.00
 30.97     623.00
 31.07     629.00
 31.17     572.00
 31.27     541.00
 31.37     572.07
 31.47     521.00
 31.57     606.00
 31.67     513.93
 31.77     555.37
 31.87     510.00
 31.97     509.00
 32.07     517.03
 32.17     537.00
 32.27     545.94
 32.37     501.31
 32.47     539.89
 32.57     553.80
 32.67     554.41
 32.77     543.00
 32.87     599.00
 32.97     490.00
 33.07     551.83
 33.17     533.00
 33.27     538.00
 33.37     555.00
 33.47     527.33
 33.57     608.00
 33.67     632.50
 33.77     783.00
 33.87     910.00
 33.97    1014.09
 34.07    1047.47
 34.17    1034.32
 34.27     907.18
 34.37     704.00
 34.47     620.34
 34.57     638.91
 34.67     526.00
 34.77     555.00
 34.87     515.00
 34.97     555.00
 35.07     493.05
 35.17     516.15
 35.27     489.00
 35.37     523.00
 35.47     553.00
 35.57     475.00
 35.67     511.00
 35.77     532.00
 35.87     495.00
 35.97     489.00
 36.07     552.00
 36.17     466.00
 36.27     532.00
 36.37     539.00
 36.47     513.57
 36.57     533.91
 36.67     549.50
 36.77     486.00
 36.87     481.00
 36.97     488.00
 37.07     493.00
 37.17     548.00
 37.27     489.00
 37.37     548.00
 37.47     524.72
 37.57     523.40
 37.67     521.00
 37.77     511.62
 37.87     518.00
 37.97     564.44
 38.07     547.00
 38.17     541.00
 38.27     530.00
 38.37     476.45
 38.47     516.08
 38.57     506.56
 38.67     493.00
 38.77     500.68
 38.87     471.00
 38.97     485.00
 39.07     480.03
 39.17     488.00
 39.27     537.00
 39.37     557.00
 39.47     496.62
 39.57     500.00
 39.67     469.00
 39.77     479.20
 39.87     509.62
 39.97     488.00
 40.07     540.34
 40.17     521.00
 40.27     548.87
 40.37     512.00
 40.47     496.00
 40.57     523.00
 40.67     497.00
 40.77     473.00
 40.87     523.00
 40.97     465.00
 41.07     500.00
 41.17     528.44
 41.27     500.00
 41.37     503.95
 41.47     476.00
 41.57     519.00
 41.67     455.00
 41.77     524.00
 41.87     498.00
 41.97     537.65
 42.07     527.00
 42.17     534.00
 42.27     539.00
 42.37     561.00
 42.47     526.00
 42.57     563.34
 42.67     617.00
 42.77     638.38
 42.87     616.05
 42.97     562.77
 43.07     587.49
 43.17     548.68
 43.27     483.88
 43.37     480.00
 43.47     534.00
 43.57     504.00
 43.67     524.00
 43.77     512.00
 43.87     499.00
 43.97     539.94
 44.07     468.26
 44.17     463.38
 44.27     460.79
 44.37     487.02
 44.47     489.48
 44.57     539.88
 44.67     501.00
 44.77     473.00
 44.87     487.00
 44.97     466.14
 45.07     482.00
 45.17     553.00
 45.27     524.44
 45.37     483.00
 45.47     536.24
 45.57     447.00
 45.67     515.71
 45.77     477.84
 45.87     503.00
 45.97     512.00
 46.07     509.00
 46.17     471.39
 46.27     533.18
 46.37     489.00
 46.47     511.00
 46.57     518.00
 46.67     501.13
 46.77     520.48
 46.87     518.00
 46.97     498.44
 47.07     495.00
 47.17     483.71
 47.27     497.00
 47.37     532.16
 47.47     578.00
 47.57     564.42
 47.67     600.92
 47.77     543.95
 47.87     569.00
 47.97     573.00
 48.07     587.07
 48.17     518.65
 48.27     530.00
 48.37     553.00
 48.47     539.00
 48.57     509.18
 48.67     549.00
 48.77     526.00
 48.87     535.00
 48.97     581.00
 49.07     552.03
 49.17     596.04
 49.27     591.00
 49.37     605.00
 49.47     711.00
 49.57     797.00
 49.67     898.00
 49.77    1154.00
 49.87    1449.25
 49.97    1855.90
 50.07    2232.00
 50.17    2519.00
 50.27    2541.66
 50.37    2226.00
 50.47    1772.00
 50.57    1444.00
 50.67    1060.03
 50.77     822.00
 50.87     772.00
 50.97     664.91
 51.07     611.00
 51.17     633.96
 51.27     572.80
 51.37     621.39
 51.47     588.00
 51.57     615.00
 51.67     559.00
 51.77     588.53
 51.87     574.00
 51.97     553.26
 52.07     565.00
 52.17     591.00
 52.27     556.00
 52.37     589.00
 52.47     545.00
 52.57     569.98
 52.67     590.00
 52.77     637.00
 52.87     702.00
 52.97     765.00
 53.07     852.00
 53.17     907.14
 53.27    1057.17
 53.37    1085.48
 53.47    1152.23
 53.57    1157.00
 53.67    1116.00
 53.77     946.44
 53.87     841.94
 53.97     747.30
 54.07     653.00
 54.17     619.00
 54.27     554.83
 54.37     612.90
 54.47     600.00
 54.57     547.89
 54.67     533.32
 54.77     600.00
 54.87     577.00
 54.97     526.00
 55.07     538.43
 55.17     545.00
 55.27     565.00
 55.37     567.00
 55.47     515.85
 55.57     594.00
 55.67     565.00
 55.77     588.00
 55.87     603.00
 55.97     620.00
 56.07     677.00
 56.17     800.66
 56.27     957.57
 56.37    1141.00
 56.47    1420.00
 56.57    1774.67
 56.67    2180.00
 56.77    2465.00
 56.87    2592.00
 56.97    2616.00
 57.07    2341.00
 57.17    2024.00
 57.27    1639.07
 57.37    1285.00
 57.47    1110.74
 57.57     858.00
 57.67     787.00
 57.77     649.54
 57.87     705.00
 57.97     702.00
 58.07     647.00
 58.17     682.06
 58.27     757.62
 58.37     840.00
 58.47     927.00
 58.57     994.00
 58.67    1101.00
 58.77    1343.00
 58.87    1369.00
 58.97    1360.00
 59.07    1495.00
 59.17    1484.00
 59.27    1404.00
 59.37    1320.86
 59.47    1244.00
 59.57    1227.00
 59.67    1174.00
 59.77    1082.71
 59.87    1285.00
 59.97    1292.00
 60.07    1384.36
 60.17    1511.00
 60.27    1606.58
 60.37    1553.66
 60.47    1423.21
 60.57    1225.00
 60.67    1115.90
 60.77     885.26
 60.87     746.09
 60.97     679.00
 61.07     658.00
 61.17     614.00
 61.27     601.93
 61.37     674.00
 61.47     704.62
 61.57     767.00
 61.67     844.00
 61.77    1039.34
 61.87    1145.39
 61.97    1276.73
 62.07    1321.00
 62.17    1363.00
 62.27    1371.00
 62.37    1288.00
 62.47    1261.04
 62.57     945.00
 62.67     884.00
 62.77     783.00
 62.87     677.92
 62.97     608.94
 63.07     605.54
 63.17     605.00
 63.27     570.00
 63.37     568.00
 63.47     593.01
 63.57     559.00
 63.67     603.42
 63.77     609.00
 63.87     593.00
 63.97     641.50
 64.07     675.74
 64.17     746.00
 64.27     875.00
 64.37     920.00
 64.47     947.00
 64.57    1063.00
 64.67    1007.00
 64.77     978.00
 64.87     947.00
 64.97     884.98
 65.07     881.00
 65.17     833.00
 65.27     715.18
 65.37     695.39
 65.47     677.78
 65.57     639.00
 65.67     607.00
 65.77     585.00
 65.87     626.38
 65.97     588.00
 66.07     509.00
 66.17     553.00
 66.27     505.00
 66.37     588.00
 66.47     546.00
 66.57     529.00
 66.67     553.22
 66.77     537.00
 66.87     614.00
 66.97     632.00
 67.07     636.00
 67.17     697.00
 67.27     784.00
 67.37     928.00
 67.47    1155.00
 67.57    1283.00
 67.67    1560.00
 67.77    1815.00
 67.87    2083.33
 67.97    2200.00
 68.07    2416.93
 68.17    2395.00
 68.27    2163.28
 68.37    2022.36
 68.47    1771.92
 68.57    1488.00
 68.67    1321.45
 68.77    1018.00
 68.87     908.19
 68.97     747.00
 69.07     713.00
 69.17     618.41
 69.27     630.00
 69.37     608.00
 69.47     587.00
 69.57     584.47
 69.67     614.34
 69.77     586.00
 69.87     554.00
 69.97     528.98
 70.07     611.00
 70.17     587.00
 70.27     562.00
 70.37     527.75
 70.47     599.00
 70.57     570.00
 70.67     561.00
 70.77     598.00
 70.87     582.00
 70.97     639.00
 71.07     709.00
 71.17     763.96
 71.27     829.00
 71.37     956.00
 71.47    1101.75
 71.57    1286.00
 71.67    1509.40
 71.77    1630.54
 71.87    1762.74
 71.97    1874.00
 72.07    1893.00
 72.17    1878.00
 72.27    1651.00
 72.37    1557.70
 72.47    1440.00
 72.57    1209.00
 72.67    1149.27
 72.77     925.00
 72.87     858.00
 72.97     812.00
 73.07     750.13
 73.17     736.00
 73.27     702.74
 73.37     642.00
 73.47     616.14
 73.57     618.00
 73.67     582.05
 73.77     654.00
 73.87     567.00
 73.97     579.00
 74.07     563.00
 74.17     593.00
 74.27     536.96
 74.37     620.00
 74.47     562.81
 74.57     525.69
 74.67     543.59
 74.77     627.00
 74.87     543.35
 74.97     591.00
 75.07     536.99
 75.17     571.00
 75.27     567.00
 75.37     552.15
 75.47     562.88
 75.57     609.00
 75.67     588.22
 75.77     605.00
 75.87     608.00
 75.97     633.00
 76.07     675.67
 76.17     640.64
 76.27     677.00
 76.37     672.77
 76.47     694.14
 76.57     706.00
 76.67     726.65
 76.77     716.02
 76.87     653.00
 76.97     692.66
 77.07     632.00
 77.17     568.35
 77.27     615.05
 77.37     539.00
 77.47     518.00
 77.57     508.00
 77.67     564.79
 77.77     534.63
 77.87     504.00
 77.97     510.89
 78.07     503.00
 78.17     497.88
 78.27     509.00
 78.37     540.00
 78.47     568.83
 78.57     551.00
 78.67     536.00
 78.77     544.00
 78.87     527.00
 78.97     502.00
 79.07     498.00
 79.17     566.09
 79.27     553.00
 79.37     510.72
 79.47     533.59
 79.57     547.00
 79.67     532.00
 79.77     514.00
 79.87     526.01
 79.97     546.00
 80.07     538.00
 80.17     523.00
 80.27     521.00
 80.37     571.00
 80.47     627.72
 80.57     636.00
 80.67     665.86
 80.77     591.00
 80.87     680.00
 80.97     708.00
 81.07     703.20
 81.17     730.00
 81.27     745.46
 81.37     719.00
 81.47     750.00
 81.57     735.00
 81.67     716.00
 81.77     727.00
 81.87     726.00
 81.97     732.00
 82.07     719.17
 82.17     652.83
 82.27     664.00
 82.37     630.00
 82.47     640.03
 82.57     574.00
 82.67     605.00
 82.77     597.00
 82.87     526.00
 82.97     508.00
 83.07     533.00
 83.17     536.96
 83.27     525.69
 83.37     558.00
 83.47     570.64
 83.57     542.00
 83.67     582.00
 83.77     555.00
 83.87     614.76
 83.97     542.70
 84.07     564.00
 84.17     570.49
 84.27     573.00
 84.37     536.00
 84.47     535.00
 84.57     530.00
 84.67     543.00
 84.77     527.00
 84.87     539.00
 84.97     564.56
 85.07     488.61
 85.17     530.00
 85.27     539.80
 85.37     511.00
 85.47     564.00
 85.57     571.00
 85.67     567.00
 85.77     495.00
 85.87     519.33
 85.97     572.76
 86.07     520.00
 86.17     513.26
 86.27     486.00
 86.37     516.86
 86.47     555.00
 86.57     568.82
 86.67     540.32
 86.77     592.31
 86.87     585.00
 86.97     559.34
 87.07     623.34
 87.17     632.00
 87.27     669.02
 87.37     649.03
 87.47     653.00
 87.57     655.00
 87.67     662.00
 87.77     593.00
 87.87     611.00
 87.97     620.66
 88.07     609.00
 88.17     576.00
 88.27     576.00
 88.37     575.00
 88.47     571.00
 88.57     557.00
 88.67     563.00
 88.77     589.00
 88.87     600.00
 88.97     585.70
 89.07     604.00
 89.17     562.00
 89.27     612.16
 89.37     569.87
 89.47     616.00
 89.57     599.00
 89.67     566.40
 89.77     556.00
 89.87     518.00
 89.97     525.00
 90.07     575.92
 90.17     542.00
 90.27     510.96
 90.37     523.00
 90.47     533.00
 90.57     507.70
 90.67     501.00
 90.77     550.51
 90.87     535.63
 90.97     489.39
 91.07     513.00
 91.17     523.68
 91.27     526.00
 91.37     543.00
 91.47     565.00
 91.57     542.00
 91.67     511.71
 91.77     543.00
 91.87     536.00
 91.97     548.14
 92.07     598.00
 92.17     597.00
 92.27     573.78
 92.37     634.07
 92.47     599.00
 92.57     631.00
 92.67     638.00
 92.77     698.00
 92.87     692.00
 92.97     671.38
 93.07     773.00
 93.17     789.00
 93.27     797.00
 93.37     838.00
 93.47     851.00
 93.57     804.00
 93.67     843.70
 93.77     895.00
 93.87     837.00
 93.97     860.00
 94.07     839.74
 94.17     888.00
 94.27     830.98
 94.37     854.00
 94.47     856.24
 94.57     857.08
 94.67     883.00
 94.77     918.00
 94.87     927.00
 94.97     871.00
 95.07     832.00
 95.17     812.69
 95.27     819.00
 95.37     801.00
 95.47     785.00
 95.57     753.00
 95.67     761.00
 95.77     681.00
 95.87     761.00
 95.97     670.00
 96.07     727.97
 96.17     702.00
 96.27     749.00
 96.37     769.00
 96.47     845.49
 96.57     867.00
 96.67     871.27
 96.77    1040.43
 96.87    1074.00
 96.97    1046.00
 97.07    1252.00
 97.17    1260.12
 97.27    1360.00
 97.37    1368.27
 97.47    1348.27
 97.57    1385.00
 97.67    1386.00
 97.77    1380.74
 97.87    1307.00
 97.97    1286.00
 98.07    1238.00
 98.17    1199.70
 98.27    1151.16
 98.37    1021.00
 98.47    1004.00
 98.57     858.00
 98.67     837.53
 98.77     789.00
 98.87     866.38
 98.97     823.00
 99.07     856.00
 99.17     874.00
 99.27     897.79
 99.37     991.00
 99.47    1077.00
 99.57    1134.46
 99.67    1203.00
 99.77    1296.00
 99.87    1363.41
 99.97    1531.00
100.07    1555.78
100.17    1770.00
100.27    1822.00
100.37    1877.00
100.47    1951.00
100.57    2057.69
100.67    2065.00
100.77    1985.99
100.87    2049.42
100.97    1996.00
101.07    1989.00
101.17    1839.00
101.27    1709.71
101.37    1708.00
101.47    1619.15
101.57    1578.87
101.67    1398.64
101.77    1337.00
101.87    1330.57
101.97    1227.00
102.07    1251.46
102.17    1151.00
102.27    1096.05
102.37    1097.04
102.47    1149.24
102.57    1066.00
102.67    1030.32
102.77     990.00
102.87    1000.00
102.97    1015.26
103.07     920.40
103.17     874.00
103.27     845.00
103.37     764.00
103.47     759.00
103.57     738.00
103.67     708.00
103.77     679.87
103.87     619.00
103.97     571.68
104.07     632.00
104.17     559.41
104.27     613.21
104.37     565.49
104.47     531.59
104.57     573.71
104.67     574.71
104.77     554.00
104.87     574.00
104.97     511.00
105.07     535.24
105.17     534.00
105.27     511.00
105.37     525.00
105.47     512.61
105.57     518.00
105.67     564.00
105.77     541.34
105.87     589.77
105.97     520.74
106.07     539.00
106.17     597.39
106.27     615.36
106.37     641.11
106.47     643.00
106.57     651.00
106.67     648.45
106.77     606.61
106.87     640.00
106.97     647.00
107.07     640.86
107.17     689.00
107.27     699.00
107.37     682.00
107.47     719.00
107.57     660.09
107.67     669.00
107.77     697.00
107.87     671.00
107.97     649.00
108.07     735.55
108.17     714.00
108.27     668.00
108.37     716.74
108.47     730.00
108.57     708.49
108.67     661.00
108.77     685.00
108.87     678.97
108.97     703.00
109.07     649.00
109.17     627.39
109.27     659.00
109.37     674.12
109.47     691.08
109.57     603.98
109.67     574.86
109.77     633.00
109.87     607.00
109.97     561.95
110.07     588.00
110.17     540.97
110.27     578.00
110.37     579.00
110.47     516.00
110.57     567.00
110.67     550.00
110.77     502.37
110.87     528.00
110.97     590.00
111.07     581.00
111.17     502.57
111.27     563.48
111.37     562.00
111.47     553.00
111.57     583.50
111.67     551.62
111.77     586.14
111.87     558.00
111.97     570.00
112.07     545.00
112.17     597.00
112.27     524.00
112.37     562.30
112.47     641.00
112.57     616.23
112.67     538.00
112.77     604.00
112.87     610.00
112.97     629.86
113.07     600.00
113.17     597.00
113.27     664.00
113.37     732.00
113.47     733.00
113.57     730.00
113.67     758.00
113.77     827.00
113.87     833.00
113.97     856.04
114.07     990.75
114.17     976.00
114.27    1052.00
114.37    1193.00
114.47    1228.00
114.57    1339.49
114.67    1499.00
114.77    1707.00
114.87    1873.00
114.97    2018.88
115.07    2372.00
115.17    2564.00
115.27    2981.00
115.37    3173.00
115.47    3602.00
115.57    3810.00
115.67    4165.64
115.77    4564.00
115.87    4759.81
115.97    5375.00
116.07    5569.81
116.17    5872.30
116.27    6305.00
116.37    6546.09
116.47    6608.96
116.57    6626.91
116.67    6839.23
116.77    6883.00
116.87    6520.85
116.97    6512.93
117.07    6123.00
117.17    5998.85
117.27    5611.00
117.37    5376.52
117.47    4866.00
117.57    4504.00
117.67    4256.58
117.77    3891.00
117.87    3618.00
117.97    3138.00
118.07    2945.00
118.17    2524.84
118.27    2321.29
118.37    2018.00
118.47    1735.00
118.57    1687.29
118.67    1352.00
118.77    1337.00
118.87    1116.00
118.97     997.00
119.07     980.17
119.17     939.27
119.27     818.00
119.37     825.00
119.47     737.08
119.57     709.32
119.67     730.96
119.77     626.00
119.87     645.00
119.97     618.08
120.07     595.00
120.17     580.00
120.27     617.00
120.37     611.00
120.47     551.00
120.57     598.03
120.67     538.31
120.77     556.00
120.87     547.00
120.97     517.00
121.07     528.66
121.17     592.00
121.27     571.18
121.37     589.00
121.47     560.00
121.57     623.99
121.67     535.00
121.77     570.66
121.87     627.00
121.97     621.00
122.07     671.00
122.17     624.00
122.27     595.00
122.37     652.23
122.47     613.00
122.57     664.49
122.67     590.09
122.77     630.00
122.87     637.00
122.97     678.00
123.07     650.00
123.17     606.76
123.27     656.00
123.37     658.00
123.47     643.88
123.57     675.00
123.67     589.00
123.77     580.00
123.87     571.71
123.97     637.86
124.07     620.00
124.17     613.90
124.27     626.00
124.37     600.00
124.47     591.56
124.57     549.00
124.67     595.95
124.77     569.00
124.87     585.00
124.97     558.00
