  9.97     602.00
 10.07     576.00
 10.17     592.00
 10.27     567.16
 10.37     526.53
 10.47     604.00
 10.57     570.62
 10.67     538.43
 10.77     563.47
 10.87     557.70
 10.97     528.93
 11.07     577.00
 11.17     577.50
 11.27     604.00
 11.37     577.00
 11.47     530.14
 11.57     575.00
 11.67     592.00
 11.77     624.00
 11.87     646.47
 11.97     606.76
 12.07     662.47
 12.17     709.08
 12.27     673.00
 12.37     640.00
 12.47     629.14
 12.57     595.45
 12.67     609.00
 12.77     578.00
 12.87     581.03
 12.97     564.03
 13.07     555.00
 13.17     548.00
 13.27     558.42
 13.37     615.98
 13.47     563.00
 13.57     564.00
 13.67     569.00
 13.77     620.00
 13.87     568.22
 13.97     615.33
 14.07     597.00
 14.17     532.00
 14.27     568.00
 14.37     552.96
 14.47     557.15
 14.57     557.00
 14.67     547.80
 14.77     588.00
 14.87     572.00
 14.97     561.65
 15.07     528.00
 15.17     558.00
 15.27     557.00
 15.37     589.00
 15.47     557.91
 15.57     547.14
 15.67     566.35
 15.77     547.00
 15.87     559.00
 15.97     529.00
 16.07     582.00
 16.17     533.00
 16.27     561.00
 16.37     553.00
 16.47     571.34
 16.57     532.74
 16.67     586.00
 16.77     589.56
 16.87     576.00
 16.97     529.00
 17.07     558.10
 17.17     554.00
 17.27     558.00
 17.37     562.10
 17.47     559.99
 17.57     520.00
 17.67     564.00
 17.77     532.00
 17.87     563.00
 17.97     515.42
 18.07     594.00
 18.17     548.45
 18.27     592.00
 18.37     583.00
 18.47     601.00
 18.57     577.00
 18.67     602.99
 18.77     547.00
 18.87     513.36
 18.97     520.98
 19.07     496.00
 19.17     515.56
 19.27     565.00
 19.37     558.00
 19.47     526.56
 19.57     512.00
 19.67     535.00
 19.77     518.29
 19.87     519.71
 19.97     535.00
 20.07     560.87
 20.17     556.43
 20.27     560.00
 20.37     523.00
 20.47     542.00
 20.57     530.00
 20.67     542.11
 20.77     557.00
 20.87     528.18
 20.97     574.00
 21.07     519.00
 21.17     531.00
 21.27     551.00
 21.37     593.15
 21.47     545.00
 21.57     516.23
 21.67     559.25
 21.77     550.00
 21.87     563.25
 21.97     549.00
 22.07     574.00
 22.17     563.00
 22.27     579.00
 22.37     516.50
 22.47     561.00
 22.57     558.00
 22.67     563.35
 22.77     553.00
 22.87     535.00
 22.97     547.99
 23.07     535.00
 23.17     580.00
 23.27     536.70
 23.37     532.00
 23.47     548.00
 23.57     558.00
 23.67     542.00
 23.77     552.00
 23.87     524.00
 23.97     578.76
 24.07     579.35
 24.17     579.91
 24.27     522.00
 24.37     510.27
 24.47     530.00
 24.57     601.00
 24.67     559.87
 24.77     581.00
 24.87     593.73
 24.97     574.57
 25.07     593.00
 25.17     548.00
 25.27     591.00
 25.37     563.33
 25.47     557.00
 25.57     528.00
 25.67     522.05
 25.77     580.00
 25.87     575.00
 25.97     511.41
 26.07     558.51
 26.17     524.76
 26.27     551.89
 26.37     562.68
 26.47     554.00
 26.57     545.00
 26.67     505.00
 26.77     531.05
 26.87     563.00
 26.97     561.00
 27.07     565.00
 27.17     517.00
 27.27     511.00
 27.37     578.71
 27.47     504.00
 27.57     553.00
 27.67     544.00
 27.77     536.00
 27.87     570.50
 27.97     703.96
 28.07     774.00
 28.17     863.00
 28.27     930.00
 28.37     934.00
 28.47     794.16
 28.57     642.00
 28.67     646.15
 28.77     781.28
 28.87     759.00
 28.97     767.00
 29.07     796.00
 29.17     660.16
 29.27     669.00
 29.37     606.00
 29.47     592.38
 29.57     621.00
 29.67     532.95
 29.77     585.00
 29.87     580.00
 29.97     598.00
 30.07     512.78
 30.17     550.00
 30.27     558.00
 30.37     490.82
 30.47     536.00
 30.57     556.00
 30.67     570.00
 30.77     622.00
 30.87     611.00
 30.97     610.00
 31.07     595.50
 31.17     544.00
 31.27     508.39
 31.37     516.00
 31.47     576.00
 31.57     522.85
 31.67     562.00
 31.77     481.00
 31.87     533.00
 31.97     508.00
 32.07     558.00
 32.17     563.00
 32.27     562.94
 32.37     543.50
 32.47     537.12
 32.57     528.00
 32.67     548.25
 32.77     552.14
 32.87     560.10
 32.97     488.16
 33.07     511.00
 33.17     541.00
 33.27     512.00
 33.37     564.58
 33.47     537.00
 33.57     548.54
 33.67     675.00
 33.77     767.73
 33.87     891.17
 33.97     980.00
 34.07    1039.00
 34.17    1059.82
 34.27     863.00
 34.37     781.00
 34.47     617.00
 34.57     611.41
 34.67     520.60
 34.77     541.00
 34.87     505.37
 34.97     488.91
 35.07     531.42
 35.17     490.77
 35.27     543.00
 35.37     540.79
 35.47     539.61
 35.57     550.00
 35.67     509.00
 35.77     496.00
 35.87     525.63
 35.97     520.00
 36.07     519.00
 36.17     484.00
 36.27     471.38
 36.37     499.33
 36.47     517.00
 36.57     478.00
 36.67     539.85
 36.77     504.00
 36.87     504.00
 36.97     494.83
 37.07     532.41
 37.17     473.00
 37.27     505.18
 37.37     470.00
 37.47     509.00
 37.57     524.00
 37.67     532.00
 37.77     520.00
 37.87     542.00
 37.97     533.00
 38.07     518.54
 38.17     541.97
 38.27     522.00
 38.37     469.00
 38.47     513.15
 38.57     468.00
 38.67     523.00
 38.77     545.00
 38.87     482.00
 38.97     495.00
 39.07     480.53
 39.17     515.00
 39.27     497.40
 39.37     499.00
 39.47     503.00
 39.57     511.71
 39.67     508.00
 39.77     509.00
 39.87     473.00
 39.97     506.48
 40.07     518.00
 40.17     495.00
 40.27     499.00
 40.37     508.00
 40.47     495.00
 40.57     478.67
 40.67     522.00
 40.77     470.00
 40.87     524.99
 40.97     518.00
 41.07     460.00
 41.17     531.62
 41.27     462.44
 41.37     534.49
 41.47     544.00
 41.57     487.33
 41.67     524.00
 41.77     525.43
 41.87     508.74
 41.97     466.23
 42.07     551.00
 42.17     510.94
 42.27     574.50
 42.37     540.00
 42.47     582.00
 42.57     622.48
 42.67     630.00
 42.77     575.00
 42.87     590.00
 42.97     545.00
 43.07     521.75
 43.17     520.00
 43.27     478.00
 43.37     539.29
 43.47     519.83
 43.57     521.00
 43.67     478.65
 43.77     504.00
 43.87     490.00
 43.97     499.00
 44.07     469.58
 44.17     477.00
 44.27     498.00
 44.37     487.98
 44.47     543.73
 44.57     479.00
 44.67     518.00
 44.77     481.00
 44.87     528.78
 44.97     483.00
 45.07     478.91
 45.17     485.73
 45.27     532.74
 45.37     494.00
 45.47     478.00
 45.57     531.00
 45.67     469.00
 45.77     484.00
 45.87     494.00
 45.97     546.74
 46.07     472.00
 46.17     542.74
 46.27     527.09
 46.37     485.00
 46.47     530.92
 46.57     516.00
 46.67     504.00
 46.77     482.00
 46.87     531.25
 46.97     513.00
 47.07     483.00
 47.17     504.00
 47.27     523.00
 47.37     543.21
 47.47     548.00
 47.57     541.00
 47.67     559.00
 47.77     633.00
 47.87     600.88
 47.97     608.00
 48.07     599.00
 48.17     552.67
 48.27     549.00
 48.37     575.20
 48.47     577.54
 48.57     542.92
 48.67     561.00
 48.77     532.00
 48.87     502.53
 48.97     554.00
 49.07     580.00
 49.17     575.00
 49.27     630.52
 49.37     580.00
 49.47     704.00
 49.57     731.00
 49.67     862.00
 49.77    1085.00
 49.87    1481.19
 49.97    1810.57
 50.07    2187.00
 50.17    2434.00
 50.27    2464.00
 50.37    2228.00
 50.47    1798.00
 50.57    1422.00
 50.67     988.00
 50.77     820.00
 50.87     772.21
 50.97     702.06
 51.07     637.00
 51.17     630.56
 51.27     621.00
 51.37     587.64
 51.47     552.85
 51.57     538.00
 51.67     560.62
 51.77     544.00
 51.87     502.63
 51.97     569.00
 52.07     534.00
 52.17     547.72
 52.27     572.86
 52.37     587.00
 52.47     526.00
 52.57     564.00
 52.67     555.66
 52.77     633.82
 52.87     656.00
 52.97     748.91
 53.07     839.00
 53.17     887.34
 53.27    1063.00
 53.37    1085.00
 53.47    1158.00
 53.57    1165.00
 53.67    1127.00
 53.77     953.73
 53.87     845.98
 53.97     743.94
 54.07     667.00
 54.17     620.00
 54.27     585.00
 54.37     591.00
 54.47     548.22
 54.57     586.00
 54.67     551.00
 54.77     562.00
 54.87     512.00
 54.97     566.78
 55.07     534.75
 55.17     562.00
 55.27     573.04
 55.37     540.00
 55.47     592.95
 55.57     562.02
 55.67     543.00
 55.77     552.00
 55.87     603.00
 55.97     641.00
 56.07     728.47
 56.17     722.03
 56.27     894.00
 56.37    1146.00
 56.47    1527.06
 56.57    1801.00
 56.67    2198.00
 56.77    2513.00
 56.87    2668.00
 56.97    2560.00
 57.07    2332.00
 57.17    1994.13
 57.27    1649.09
 57.37    1337.00
 57.47    1057.23
 57.57     900.00
 57.67     728.00
 57.77     708.31
 57.87     657.97
 57.97     718.00
 58.07     653.00
 58.17     722.00
 58.27     726.63
 58.37     815.00
 58.47     876.00
 58.57     987.06
 58.67    1226.30
 58.77    1309.90
 58.87    1407.00
 58.97    1423.16
 59.07    1428.40
 59.17    1481.00
 59.27    1444.00
 59.37    1195.58
 59.47    1211.00
 59.57    1194.00
 59.67    1143.00
 59.77    1176.29
 59.87    1209.00
 59.97    1316.00
 60.07    1478.00
 60.17    1510.00
 60.27    1611.76
 60.37    1530.77
 60.47    1424.00
 60.57    1276.00
 60.67    1042.95
 60.77     910.27
 60.87     833.27
 60.97     736.01
 61.07     657.00
 61.17     620.00
 61.27     579.64
 61.37     655.00
 61.47     728.00
 61.57     741.00
 61.67     859.69
 61.77     974.00
 61.87    1112.00
 61.97    1267.00
 62.07    1403.93
 62.17    1392.36
 62.27    1355.00
 62.37    1317.00
 62.47    1176.00
 62.57    1083.45
 62.67     895.60
 62.77     732.00
 62.87     704.00
 62.97     661.00
 63.07     651.01
 63.17     593.57
 63.27     570.00
 63.37     558.00
 63.47     591.00
 63.57     579.00
 63.67     649.00
 63.77     597.00
 63.87     642.00
 63.97     685.00
 64.07     698.53
 64.17     784.00
 64.27     854.00
 64.37     926.00
 64.47     989.00
 64.57     970.90
 64.67    1012.00
 64.77    1049.00
 64.87     935.00
 64.97     903.00
 65.07     829.00
 65.17     842.61
 65.27     707.00
 65.37     666.00
 65.47     670.00
 65.57     617.00
 65.67     632.01
 65.77     573.00
 65.87     629.63
 65.97     562.00
 66.07     531.00
 66.17     609.83
 66.27     527.00
 66.37     532.00
 66.47     520.00
 66.57     589.00
 66.67     543.00
 66.77     561.00
 66.87     557.00
 66.97     599.00
 67.07     650.77
 67.17     670.00
 67.27     757.00
 67.37     865.71
 67.47    1096.00
 67.57    1235.54
 67.67    1581.00
 67.77    1854.00
 67.87    1994.00
 67.97    2271.00
 68.07    2373.47
 68.17    2301.24
 68.27    2309.00
 68.37    2109.07
 68.47    1807.04
 68.57    1521.00
 68.67    1311.00
 68.77    1063.00
 68.87     943.56
 68.97     801.72
 69.07     693.17
 69.17     620.30
 69.27     649.00
 69.37     598.00
 69.47     621.06
 69.57     588.11
 69.67     561.00
 69.77     546.01
 69.87     550.00
 69.97     566.00
 70.07     575.00
 70.17     607.00
 70.27     547.58
 70.37     526.67
 70.47     548.00
 70.57     594.00
 70.67     576.00
 70.77     569.00
 70.87     593.16
 70.97     634.00
 71.07     676.10
 71.17     704.00
 71.27     835.00
 71.37     958.03
 71.47    1050.00
 71.57    1261.20
 71.67    1452.00
 71.77    1657.00
 71.87    1853.06
 71.97    1860.00
 72.07    1989.96
 72.17    1782.33
 72.27    1698.61
 72.37    1583.00
 72.47    1466.00
 72.57    1295.00
 72.67    1142.00
 72.77    1008.00
 72.87     919.24
 72.97     910.51
 73.07     839.39
 73.17     780.50
 73.27     613.00
 73.37     685.00
 73.47     672.63
 73.57     661.03
 73.67     601.00
 73.77     604.00
 73.87     595.99
 73.97     569.00
 74.07     610.00
 74.17     591.00
 74.27     653.00
 74.37     558.92
 74.47     539.16
 74.57     655.00
 74.67     549.33
 74.77     605.00
 74.87     545.55
 74.97     525.33
 75.07     531.00
 75.17     604.00
 75.27     516.40
 75.37     539.00
 75.47     524.80
 75.57     556.00
 75.67     567.00
 75.77     529.00
 75.87     583.00
 75.97     581.00
 76.07     658.00
 76.17     628.00
 76.27     644.00
 76.37     684.00
 76.47     708.00
 76.57     725.74
 76.67     674.00
 76.77     697.00
 76.87     628.00
 76.97     601.96
 77.07     572.00
 77.17     589.12
 77.27     578.00
 77.37     586.48
 77.47     574.00
 77.57     506.00
 77.67     521.98
 77.77     537.71
 77.87     491.00
 77.97     543.49
 78.07     540.00
 78.17     505.58
 78.27     519.00
 78.37     472.00
 78.47     530.04
 78.57     486.40
 78.67     546.08
 78.77     520.00
 78.87     514.00
 78.97     485.00
 79.07     518.00
 79.17     508.00
 79.27     527.00
 79.37     555.00
 79.47     522.00
 79.57     521.00
 79.67     526.00
 79.77     548.00
 79.87     578.65
 79.97     522.00
 80.07     540.00
 80.17     541.00
 80.27     610.00
 80.37     543.00
 80.47     635.21
 80.57     649.99
 80.67     607.00
 80.77     670.00
 80.87     663.00
 80.97     697.00
 81.07     660.00
 81.17     687.08
 81.27     783.00
 81.37     741.00
 81.47     703.12
 81.57     746.51
 81.67     781.00
 81.77     758.00
 81.87     654.55
 81.97     694.00
 82.07     678.00
 82.17     611.12
 82.27     679.81
 82.37     602.00
 82.47     624.00
 82.57     597.00
 82.67     576.32
 82.77     551.00
 82.87     553.00
 82.97     615.00
 83.07     527.69
 83.17     543.22
 83.27     596.94
 83.37     586.40
 83.47     513.09
 83.57     522.00
 83.67     577.82
 83.77     573.00
 83.87     598.26
 83.97     572.31
 84.07     577.00
 84.17     545.72
 84.27     527.00
 84.37     559.00
 84.47     578.00
 84.57     564.00
 84.67     514.00
 84.77     519.02
 84.87     487.00
 84.97     581.94
 85.07     572.61
 85.17     553.00
 85.27     516.00
 85.37     574.00
 85.47     521.00
 85.57     561.00
 85.67     519.35
 85.77     507.17
 85.87     569.00
 85.97     556.00
 86.07     544.00
 86.17     559.00
 86.27     549.00
 86.37     498.00
 86.47     534.00
 86.57     598.00
 86.67     567.00
 86.77     599.00
 86.87     603.00
 86.97     592.69
 87.07     602.76
 87.17     665.00
 87.27     581.50
 87.37     584.96
 87.47     616.62
 87.57     632.08
 87.67     598.00
 87.77     663.00
 87.87     641.00
 87.97     648.00
 88.07     639.00
 88.17     597.68
 88.27     564.00
 88.37     521.00
 88.47     552.64
 88.57     555.67
 88.67     579.00
 88.77     593.00
 88.87     559.66
 88.97     572.00
 89.07     635.52
 89.17     597.00
 89.27     622.00
 89.37     611.00
 89.47     557.24
 89.57     545.00
 89.67     587.65
 89.77     555.00
 89.87     587.00
 89.97     550.00
 90.07     579.13
 90.17     528.00
 90.27     538.00
 90.37     526.00
 90.47     566.59
 90.57     490.32
 90.67     506.18
 90.77     495.00
 90.87     513.00
 90.97     536.88
 91.07     515.47
 91.17     532.00
 91.27     568.00
 91.37     542.24
 91.47     538.25
 91.57     563.00
 91.67     512.00
 91.77     493.00
 91.87     489.00
 91.97     545.30
 92.07     557.82
 92.17     587.00
 92.27     574.00
 92.37     596.02
 92.47     585.00
 92.57     632.00
 92.67     653.00
 92.77     666.00
 92.87     701.00
 92.97     743.00
 93.07     734.71
 93.17     719.94
 93.27     798.17
 93.37     736.00
 93.47     805.06
 93.57     781.00
 93.67     794.00
 93.77     784.00
 93.87     829.00
 93.97     835.00
 94.07     849.00
 94.17     886.00
 94.27     786.91
 94.37     863.24
 94.47     910.00
 94.57     858.00
 94.67     909.00
 94.77     888.00
 94.87     916.00
 94.97     890.38
 95.07     956.00
 95.17     785.46
 95.27     825.38
 95.37     782.00
 95.47     821.00
 95.57     776.42
 95.67     789.00
 95.77     705.00
 95.87     715.00
 95.97     711.00
 96.07     696.00
 96.17     667.00
 96.27     678.27
 96.37     779.00
 96.47     808.00
 96.57     877.92
 96.67     995.00
 96.77     988.00
 96.87    1058.00
 96.97    1135.00
 97.07    1226.00
 97.17    1298.00
 97.27    1365.00
 97.37    1359.00
 97.47    1389.87
 97.57    1452.00
 97.67    1366.00
 97.77    1380.00
 97.87    1253.00
 97.97    1321.00
 98.07    1208.00
 98.17    1175.00
 98.27    1153.00
 98.37    1003.00
 98.47     927.00
 98.57     881.00
 98.67     833.00
 98.77     829.00
 98.87     770.00
 98.97     820.00
 99.07     822.93
 99.17     881.00
 99.27     897.00
 99.37     965.00
 99.47    1053.22
 99.57    1145.00
 99.67    1185.00
 99.77    1295.00
 99.87    1354.00
 99.97    1558.31
100.07    1560.74
100.17    1769.94
100.27    1874.00
100.37    1921.74
100.47    2028.57
100.57    2097.00
100.67    2088.03
100.77    2087.08
100.87    2051.00
100.97    1992.00
101.07    1890.00
101.17    1800.00
101.27    1698.00
101.37    1591.00
101.47    1538.00
101.57    1466.39
101.67    1410.00
101.77    1379.98
101.87    1339.00
101.97    1250.00
102.07    1154.00
102.17    1225.43
102.27    1162.71
102.37    1041.00
102.47    1037.00
102.57    1038.00
102.67    1035.00
102.77    1068.00
102.87     982.00
102.97     908.76
103.07     928.49
103.17     910.29
103.27     864.00
103.37     774.50
103.47     795.00
103.57     751.00
103.67     677.54
103.77     672.00
103.87     664.00
103.97     636.00
104.07     618.00
104.17     615.75
104.27     577.00
104.37     615.00
104.47     578.00
104.57     523.00
104.67     545.00
104.77     574.00
104.87     506.00
104.97     495.94
105.07     576.66
105.17     530.00
105.27     529.00
105.37     505.00
105.47     513.94
105.57     557.00
105.67     580.01
105.77     548.00
105.87     568.09
105.97     580.74
106.07     616.00
106.17     583.32
106.27     633.00
106.37     574.00
106.47     585.54
106.57     633.00
106.67     618.00
106.77     610.00
106.87     690.00
106.97     642.00
107.07     732.15
107.17     680.66
107.27     663.00
107.37     708.26
107.47     719.15
107.57     655.00
107.67     666.00
107.77     701.00
107.87     656.18
107.97     692.00
108.07     689.00
108.17     706.00
108.27     695.58
108.37     671.33
108.47     677.96
108.57     688.00
108.67     699.00
108.77     646.28
108.87     721.70
108.97     662.00
109.07     675.00
109.17     665.00
109.27     628.14
109.37     691.08
109.47     628.00
109.57     635.00
109.67     663.85
109.77     649.00
109.87     614.48
109.97     630.06
110.07     559.00
110.17     588.00
110.27     527.25
110.37     600.69
110.47     561.19
110.57     583.37
110.67     531.00
110.77     521.91
110.87     552.40
110.97     548.00
111.07     560.00
111.17     594.00
111.27     555.00
111.37     578.01
111.47     553.90
111.57     498.99
111.67     538.00
111.77     580.35
111.87     531.98
111.97     520.00
112.07     565.00
112.17     583.00
112.27     581.00
112.37     551.00
112.47     577.00
112.57     605.00
112.67     590.00
112.77     595.00
112.87     599.00
112.97     626.00
113.07     622.00
113.17     679.00
113.27     656.41
113.37     701.00
113.47     725.00
113.57     767.00
113.67     854.00
113.77     799.00
113.87     860.00
113.97     968.23
114.07     996.00
114.17     993.90
114.27    1000.00
114.37    1207.00
114.47    1305.00
114.57    1406.71
114.67    1516.00
114.77    1697.00
114.87    1820.14
114.97    2102.08
115.07    2327.00
115.17    2580.00
115.27    2948.00
115.37    3122.79
115.47    3451.00
115.57    3777.00
115.67    4126.78
115.77    4378.41
115.87    4989.00
115.97    5294.00
116.07    5676.00
116.17    6031.00
116.27    6394.19
116.37    6469.00
116.47    6785.00
116.57    6934.00
116.67    6963.13
116.77    6963.00
116.87    6625.00
116.97    6421.00
117.07    6402.08
117.17    6168.03
117.27    5471.00
117.37    5231.00
117.47    4873.00
117.57    4530.00
117.67    4148.00
117.77    3931.00
117.87    3600.00
117.97    3201.00
118.07    2848.00
118.17    2422.16
118.27    2235.62
118.37    1949.00
118.47    1754.96
118.57    1456.00
118.67    1487.88
118.77    1288.00
118.87    1078.00
118.97    1037.00
119.07     918.58
119.17     911.00
119.27     827.00
119.37     782.00
119.47     724.69
119.57     776.00
119.67     725.94
119.77     632.92
119.87     608.27
119.97     608.59
120.07     624.35
120.17     566.65
120.27     556.72
120.37     611.66
120.47     554.35
120.57     612.07
120.67     594.32
120.77     573.76
120.87     616.00
120.97     565.00
121.07     577.00
121.17     585.00
121.27     622.00
121.37     551.00
121.47     546.33
121.57     588.00
121.67     618.00
121.77     604.00
121.87     619.00
121.97     615.00
122.07     660.00
122.17     630.61
122.27     593.37
122.37     634.00
122.47     631.79
122.57     658.00
122.67     646.51
122.77     608.00
122.87     665.00
122.97     628.00
123.07     679.76
123.17     668.01
123.27     676.87
123.37     688.71
123.47     622.00
123.57     609.55
123.67     603.23
123.77     635.00
123.87     618.00
123.97     599.00
124.07     626.00
124.17     646.00
124.27     582.00
124.37     539.00
124.47     620.00
124.57     587.00
124.67     570.44
124.77     633.18
124.87     612.00
124.97     591.00
