  9.97     518.63
 10.07     585.19
 10.17     534.85
 10.27     640.00
 10.37     578.00
 10.47     577.00
 10.57     525.22
 10.67     594.00
 10.77     565.71
 10.87     564.00
 10.97     590.50
 11.07     605.00
 11.17     536.39
 11.27     564.00
 11.37     563.36
 11.47     601.00
 11.57     590.71
 11.67     605.19
 11.77     582.64
 11.87     609.33
 11.97     664.18
 12.07     698.00
 12.17     681.00
 12.27     669.00
 12.37     639.00
 12.47     645.00
 12.57     581.00
 12.67     595.00
 12.77     562.70
 12.87     620.89
 12.97     527.00
 13.07     558.00
 13.17     597.00
 13.27     556.00
 13.37     564.74
 13.47     560.00
 13.57     533.00
 13.67     555.62
 13.77     563.00
 13.87     569.25
 13.97     583.88
 14.07     522.76
 14.17     576.00
 14.27     565.00
 14.37     584.04
 14.47     607.00
 14.57     549.00
 14.67     538.05
 14.77     539.00
 14.87     557.00
 14.97     554.00
 15.07     573.63
 15.17     532.25
 15.27     558.87
 15.37     557.90
 15.47     574.00
 15.57     549.48
 15.67     553.00
 15.77     546.00
 15.87     560.06
 15.97     534.34
 16.07     598.00
 16.17     533.29
 16.27     595.27
 16.37     529.00
 16.47     549.00
 16.57     542.00
 16.67     563.00
 16.77     543.27
 16.87     584.32
 16.97     588.35
 17.07     553.00
 17.17     530.74
 17.27     577.00
 17.37     601.56
 17.47     543.00
 17.57     538.00
 17.67     570.00
 17.77     543.93
 17.87     536.00
 17.97     536.00
 18.07     538.58
 18.17     534.00
 18.27     595.05
 18.37     580.00
 18.47     546.21
 18.57     541.00
 18.67     536.87
 18.77     529.20
 18.87     526.00
 18.97     516.67
 19.07     563.19
 19.17     535.00
 19.27     555.00
 19.37     559.00
 19.47     550.00
 19.57     522.12
 19.67     541.00
 19.77     520.72
 19.87     483.00
 19.97     527.00
 20.07     577.00
 20.17     548.00
 20.27     551.00
 20.37     554.00
 20.47     522.00
 20.57     521.61
 20.67     512.00
 20.77     526.31
 20.87     559.00
 20.97     551.89
 21.07     529.00
 21.17     532.00
 21.27     543.00
 21.37     538.00
 21.47     508.93
 21.57     560.94
 21.67     541.61
 21.77     519.53
 21.87     548.79
 21.97     532.00
 22.07     575.00
 22.17     569.00
 22.27     531.00
 22.37     550.52
 22.47     513.00
 22.57     552.00
 22.67     538.00
 22.77     505.98
 22.87     598.00
 22.97     543.00
 23.07     508.70
 23.17     531.00
 23.27     540.21
 23.37     529.30
 23.47     565.00
 23.57     551.00
 23.67     534.00
 23.77     532.00
 23.87     561.00
 23.97     538.63
 24.07     518.00
 24.17     547.00
 24.27     631.00
 24.37     563.00
 24.47     539.00
 24.57     621.20
 24.67     621.00
 24.77     626.71
 24.87     648.00
 24.97     621.00
 25.07     569.43
 25.17     564.00
 25.27     586.00
 25.37     625.00
 25.47     566.00
 25.57     518.05
 25.67     544.04
 25.77     539.00
 25.87     617.00
 25.97     531.00
 26.07     575.92
 26.17     560.00
 26.27     560.00
 26.37     545.00
 26.47     535.41
 26.57     499.53
 26.67     559.00
 26.77     553.00
 26.87     554.00
 26.97     553.69
 27.07     565.00
 27.17     560.00
 27.27     539.00
 27.37     557.00
 27.47     542.47
 27.57     590.00
 27.67     548.00
 27.77     616.00
 27.87     617.00
 27.97     683.66
 28.07     711.51
 28.17     779.00
 28.27     915.00
 28.37     894.00
 28.47     862.00
 28.57     764.00
 28.67     725.11
 28.77     676.00
 28.87     786.00
 28.97     871.00
 29.07     816.26
 29.17     728.00
 29.27     660.00
 29.37     600.70
 29.47     585.00
 29.57     540.33
 29.67     597.00
 29.77     524.19
 29.87     536.32
 29.97     531.00
 30.07     573.00
 30.17     545.00
 30.27     540.00
 30.37     581.00
 30.47     537.00
 30.57     567.72
 30.67     554.00
 30.77     596.00
 30.87     606.00
 30.97     639.28
 31.07     625.00
 31.17     574.05
 31.27     545.00
 31.37     547.00
 31.47     551.00
 31.57     564.05
 31.67     535.00
 31.77     565.07
 31.87     541.00
 31.97     525.45
 32.07     541.00
 32.17     512.11
 32.27     540.00
 32.37     574.00
 32.47     511.08
 32.57     554.00
 32.67     533.22
 32.77     547.68
 32.87     517.00
 32.97     494.76
 33.07     567.00
 33.17     560.00
 33.27     514.00
 33.37     514.00
 33.47     541.00
 33.57     530.41
 33.67     614.00
 33.77     692.00
 33.87     790.00
 33.97     927.56
 34.07     982.71
 34.17     970.00
 34.27     920.00
 34.37     790.49
 34.47     669.66
 34.57     661.00
 34.67     567.00
 34.77     562.00
 34.87     556.00
 34.97     533.00
 35.07     477.00
 35.17     508.82
 35.27     523.00
 35.37     502.00
 35.47     508.84
 35.57     512.00
 35.67     513.00
 35.77     486.00
 35.87     487.00
 35.97     536.00
 36.07     495.01
 36.17     472.44
 36.27     539.12
 36.37     474.00
 36.47     541.00
 36.57     509.00
 36.67     510.00
 36.77     509.00
 36.87     517.80
 36.97     536.47
 37.07     480.00
 37.17     472.70
 37.27     519.00
 37.37     448.00
 37.47     496.62
 37.57     524.00
 37.67     496.00
 37.77     491.61
 37.87     535.00
 37.97     552.00
 38.07     509.00
 38.17     483.00
 38.27     504.00
 38.37     492.00
 38.47     469.00
 38.57     465.00
 38.67     435.00
 38.77     491.00
 38.87     489.00
 38.97     501.00
 39.07     455.81
 39.17     449.00
 39.27     458.00
 39.37     485.00
 39.47     480.00
 39.57     462.86
 39.67     516.00
 39.77     517.81
 39.87     515.00
 39.97     447.00
 40.07     485.00
 40.17     483.00
 40.27     481.97
 40.37     514.00
 40.47     479.00
 40.57     534.88
 40.67     480.00
 40.77     487.00
 40.87     453.36
 40.97     528.67
 41.07     496.56
 41.17     475.49
 41.27     464.00
 41.37     494.00
 41.47     456.00
 41.57     499.00
 41.67     524.00
 41.77     500.00
 41.87     510.18
 41.97     515.00
 42.07     534.02
 42.17     489.00
 42.27     491.00
 42.37     502.49
 42.47     518.88
 42.57     614.37
 42.67     595.00
 42.77     606.00
 42.87     531.00
 42.97     550.74
 43.07     588.29
 43.17     530.00
 43.27     521.00
 43.37     533.00
 43.47     480.00
 43.57     434.00
 43.67     508.56
 43.77     450.00
 43.87     504.00
 43.97     490.97
 44.07     445.00
 44.17     487.00
 44.27     502.00
 44.37     507.38
 44.47     494.00
 44.57     482.00
 44.67     489.00
 44.77     488.00
 44.87     516.00
 44.97     516.00
 45.07     521.00
 45.17     531.90
 45.27     549.00
 45.37     507.88
 45.47     509.00
 45.57     454.63
 45.67     461.51
 45.77     440.00
 45.87     503.00
 45.97     478.85
 46.07     507.00
 46.17     514.09
 46.27     461.00
 46.37     479.00
 46.47     519.87
 46.57     509.00
 46.67     507.00
 46.77     557.00
 46.87     493.00
 46.97     456.00
 47.07     510.00
 47.17     468.68
 47.27     540.00
 47.37     538.15
 47.47     493.64
 47.57     549.00
 47.67     559.00
 47.77     531.13
 47.87     594.00
 47.97     593.00
 48.07     526.00
 48.17     528.73
 48.27     517.77
 48.37     524.00
 48.47     541.00
 48.57     513.02
 48.67     467.00
 48.77     518.86
 48.87     536.00
 48.97     503.98
 49.07     567.44
 49.17     573.00
 49.27     557.00
 49.37     614.00
 49.47     610.00
 49.57     640.00
 49.67     742.00
 49.77     882.00
 49.87    1167.47
 49.97    1509.42
 50.07    1902.72
 50.17    2182.00
 50.27    2397.33
 50.37    2317.40
 50.47    2099.00
 50.57    1725.87
 50.67    1276.00
 50.77     989.17
 50.87     802.00
 50.97     736.89
 51.07     621.46
 51.17     648.74
 51.27     653.40
 51.37     613.10
 51.47     573.73
 51.57     549.00
 51.67     570.00
 51.77     518.03
 51.87     553.00
 51.97     549.00
 52.07     565.00
 52.17     559.23
 52.27     489.70
 52.37     594.00
 52.47     534.00
 52.57     561.00
 52.67     563.00
 52.77     554.21
 52.87     610.00
 52.97     682.00
 53.07     700.00
 53.17     858.00
 53.27     931.00
 53.37    1038.37
 53.47    1207.00
 53.57    1244.68
 53.67    1145.00
 53.77    1086.09
 53.87    1048.00
 53.97     925.00
 54.07     791.00
 54.17     700.17
 54.27     655.99
 54.37     621.45
 54.47     572.79
 54.57     594.00
 54.67     596.00
 54.77     520.15
 54.87     593.28
 54.97     524.65
 55.07     591.00
 55.17     591.00
 55.27     562.71
 55.37     592.78
 55.47     554.00
 55.57     557.23
 55.67     606.00
 55.77     590.00
 55.87     606.00
 55.97     632.31
 56.07     665.00
 56.17     718.00
 56.27     833.94
 56.37     948.00
 56.47    1241.00
 56.57    1558.27
 56.67    1764.00
 56.77    2279.26
 56.87    2466.00
 56.97    2508.00
 57.07    2532.00
 57.17    2350.05
 57.27    1939.00
 57.37    1647.00
 57.47    1278.00
 57.57    1132.73
 57.67     973.23
 57.77     780.00
 57.87     745.00
 57.97     722.08
 58.07     751.00
 58.17     743.16
 58.27     711.00
 58.37     794.00
 58.47     806.60
 58.57     849.86
 58.67     974.35
 58.77    1034.00
 58.87    1083.00
 58.97    1190.00
 59.07    1301.00
 59.17    1293.22
 59.27    1399.00
 59.37    1172.66
 59.47    1222.24
 59.57    1176.00
 59.67    1152.68
 59.77    1248.00
 59.87    1206.00
 59.97    1290.00
 60.07    1295.00
 60.17    1371.82
 60.27    1489.00
 60.37    1502.00
 60.47    1493.00
 60.57    1373.67
 60.67    1195.51
 60.77    1086.00
 60.87     983.42
 60.97     881.00
 61.07     691.00
 61.17     655.00
 61.27     702.00
 61.37     662.09
 61.47     672.00
 61.57     739.26
 61.67     736.00
 61.77     923.88
 61.87     944.00
 61.97    1187.68
 62.07    1225.00
 62.17    1372.55
 62.27    1286.00
 62.37    1332.00
 62.47    1304.62
 62.57    1106.00
 62.67    1052.00
 62.77     886.00
 62.87     797.00
 62.97     657.00
 63.07     664.21
 63.17     591.00
 63.27     591.00
 63.37     636.00
 63.47     589.09
 63.57     593.00
 63.67     592.00
 63.77     620.00
 63.87     619.00
 63.97     669.97
 64.07     609.48
 64.17     724.00
 64.27     746.78
 64.37     807.93
 64.47     919.00
 64.57     951.00
 64.67    1014.76
 64.77     981.00
 64.87    1009.74
 64.97     927.44
 65.07     866.00
 65.17     802.00
 65.27     781.00
 65.37     724.00
 65.47     707.00
 65.57     689.51
 65.67     633.00
 65.77     603.42
 65.87     593.00
 65.97     555.00
 66.07     602.83
 66.17     568.00
 66.27     536.00
 66.37     559.73
 66.47     526.63
 66.57     581.72
 66.67     581.38
 66.77     541.00
 66.87     581.71
 66.97     586.00
 67.07     630.00
 67.17     667.00
 67.27     689.55
 67.37     791.00
 67.47     916.76
 67.57    1097.00
 67.67    1269.00
 67.77    1607.24
 67.87    1860.00
 67.97    2096.63
 68.07    2322.00
 68.17    2357.80
 68.27    2348.00
 68.37    2314.00
 68.47    2077.00
 68.57    1740.64
 68.67    1601.00
 68.77    1343.37
 68.87    1147.44
 68.97     928.00
 69.07     875.14
 69.17     796.16
 69.27     693.88
 69.37     600.11
 69.47     597.00
 69.57     571.14
 69.67     603.00
 69.77     560.86
 69.87     578.00
 69.97     567.00
 70.07     568.00
 70.17     550.00
 70.27     571.00
 70.37     568.35
 70.47     580.00
 70.57     619.00
 70.67     586.00
 70.77     574.00
 70.87     643.00
 70.97     617.00
 71.07     690.76
 71.17     721.18
 71.27     764.00
 71.37     817.00
 71.47     933.00
 71.57    1068.47
 71.67    1230.38
 71.77    1456.00
 71.87    1628.00
 71.97    1703.00
 72.07    1810.00
 72.17    1788.00
 72.27    1826.00
 72.37    1802.00
 72.47    1588.00
 72.57    1526.00
 72.67    1308.81
 72.77    1071.04
 72.87    1045.00
 72.97     847.00
 73.07     841.00
 73.17     710.00
 73.27     705.33
 73.37     693.22
 73.47     657.00
 73.57     627.68
 73.67     584.90
 73.77     615.00
 73.87     591.00
 73.97     620.00
 74.07     563.00
 74.17     566.00
 74.27     625.48
 74.37     627.37
 74.47     589.60
 74.57     565.83
 74.67     613.00
 74.77     577.61
 74.87     576.00
 74.97     623.00
 75.07     595.00
 75.17     641.00
 75.27     615.00
 75.37     596.00
 75.47     591.00
 75.57     566.00
 75.67     581.00
 75.77     529.00
 75.87     554.00
 75.97     607.30
 76.07     576.00
 76.17     600.99
 76.27     674.00
 76.37     629.00
 76.47     686.55
 76.57     672.00
 76.67     706.00
 76.77     728.00
 76.87     650.83
 76.97     639.12
 77.07     605.85
 77.17     607.36
 77.27     591.00
 77.37     611.44
 77.47     518.00
 77.57     539.36
 77.67     510.00
 77.77     503.12
 77.87     558.55
 77.97     498.00
 78.07     535.00
 78.17     518.00
 78.27     496.00
 78.37     539.00
 78.47     491.71
 78.57     529.00
 78.67     521.02
 78.77     557.03
 78.87     553.11
 78.97     483.97
 79.07     490.00
 79.17     513.74
 79.27     483.00
 79.37     524.00
 79.47     512.00
 79.57     554.00
 79.67     511.00
 79.77     555.00
 79.87     479.00
 79.97     546.00
 80.07     537.00
 80.17     549.00
 80.27     520.00
 80.37     583.12
 80.47     583.06
 80.57     545.96
 80.67     659.00
 80.77     604.00
 80.87     660.58
 80.97     617.00
 81.07     650.00
 81.17     672.08
 81.27     734.26
 81.37     683.11
 81.47     702.00
 81.57     798.00
 81.67     702.00
 81.77     741.00
 81.87     763.00
 81.97     748.15
 82.07     668.00
 82.17     638.00
 82.27     613.72
 82.37     654.28
 82.47     593.00
 82.57     609.00
 82.67     572.54
 82.77     539.39
 82.87     599.00
 82.97     589.23
 83.07     578.09
 83.17     544.00
 83.27     529.00
 83.37     556.00
 83.47     532.00
 83.57     570.68
 83.67     565.00
 83.77     519.00
 83.87     589.80
 83.97     518.32
 84.07     553.00
 84.17     560.00
 84.27     575.00
 84.37     539.02
 84.47     522.02
 84.57     523.00
 84.67     507.44
 84.77     514.00
 84.87     516.00
 84.97     519.00
 85.07     513.38
 85.17     492.19
 85.27     535.00
 85.37     504.00
 85.47     484.21
 85.57     524.00
 85.67     532.93
 85.77     500.00
 85.87     477.40
 85.97     513.00
 86.07     497.00
 86.17     524.00
 86.27     478.00
 86.37     476.74
 86.47     520.00
 86.57     518.00
 86.67     526.00
 86.77     546.00
 86.87     532.59
 86.97     578.00
 87.07     591.00
 87.17     588.00
 87.27     601.74
 87.37     628.00
 87.47     643.00
 87.57     587.90
 87.67     648.00
 87.77     633.00
 87.87     617.00
 87.97     657.00
 88.07     565.14
 88.17     582.00
 88.27     560.61
 88.37     595.00
 88.47     580.95
 88.57     548.00
 88.67     543.16
 88.77     570.00
 88.87     528.14
 88.97     587.00
 89.07     578.71
 89.17     588.00
 89.27     586.00
 89.37     580.00
 89.47     638.00
 89.57     626.55
 89.67     569.00
 89.77     586.00
 89.87     505.00
 89.97     563.58
 90.07     535.00
 90.17     536.00
 90.27     523.00
 90.37     496.74
 90.47     494.85
 90.57     532.00
 90.67     504.05
 90.77     512.00
 90.87     553.00
 90.97     482.00
 91.07     544.00
 91.17     477.00
 91.27     499.03
 91.37     492.00
 91.47     543.00
 91.57     486.00
 91.67     499.00
 91.77     481.00
 91.87     525.41
 91.97     499.98
 92.07     537.45
 92.17     551.00
 92.27     546.00
 92.37     500.00
 92.47     590.00
 92.57     583.00
 92.67     636.49
 92.77     587.00
 92.87     672.75
 92.97     627.00
 93.07     637.31
 93.17     706.00
 93.27     748.00
 93.37     749.00
 93.47     782.00
 93.57     766.00
 93.67     768.42
 93.77     789.00
 93.87     762.36
 93.97     794.16
 94.07     840.00
 94.17     769.77
 94.27     896.00
 94.37     792.00
 94.47     877.00
 94.57     879.66
 94.67     881.00
 94.77     887.00
 94.87     835.39
 94.97     841.47
 95.07     824.45
 95.17     853.41
 95.27     847.00
 95.37     868.00
 95.47     824.00
 95.57     812.48
 95.67     825.00
 95.77     737.00
 95.87     680.35
 95.97     699.00
 96.07     734.00
 96.17     686.00
 96.27     717.00
 96.37     758.68
 96.47     767.00
 96.57     804.63
 96.67     818.00
 96.77     863.37
 96.87     870.00
 96.97    1033.14
 97.07    1023.80
 97.17    1151.00
 97.27    1225.00
 97.37    1328.00
 97.47    1394.00
 97.57    1368.00
 97.67    1427.61
 97.77    1407.00
 97.87    1395.00
 97.97    1335.00
 98.07    1358.00
 98.17    1265.00
 98.27    1233.00
 98.37    1192.58
 98.47    1149.68
 98.57    1052.00
 98.67     954.00
 98.77     917.00
 98.87     843.00
 98.97     888.05
 99.07     847.00
 99.17     843.00
 99.27     875.00
 99.37     908.00
 99.47     908.00
 99.57     954.52
 99.67    1010.62
 99.77    1160.00
 99.87    1243.00
 99.97    1286.58
100.07    1431.00
100.17    1513.00
100.27    1632.00
100.37    1766.23
100.47    1762.00
100.57    1876.32
100.67    1840.54
100.77    1982.06
100.87    1976.13
100.97    1994.00
101.07    2025.18
101.17    1864.00
101.27    1845.70
101.37    1871.08
101.47    1778.00
101.57    1648.77
101.67    1538.27
101.77    1501.00
101.87    1495.00
101.97    1367.00
102.07    1388.81
102.17    1255.00
102.27    1193.88
102.37    1158.00
102.47    1196.10
102.57    1148.00
102.67    1102.00
102.77    1065.00
102.87    1018.28
102.97    1042.00
103.07     979.20
103.17    1025.00
103.27     920.00
103.37     892.00
103.47     856.00
103.57     849.00
103.67     829.35
103.77     764.91
103.87     747.96
103.97     691.18
104.07     666.13
104.17     596.43
104.27     645.00
104.37     570.22
104.47     541.00
104.57     571.25
104.67     561.26
104.77     533.08
104.87     503.96
104.97     581.00
105.07     588.00
105.17     496.17
105.27     548.00
105.37     516.59
105.47     578.00
105.57     514.00
105.67     496.00
105.77     512.00
105.87     517.30
105.97     533.00
106.07     582.00
106.17     552.68
106.27     578.00
106.37     577.00
106.47     616.00
106.57     613.86
106.67     635.88
106.77     598.00
106.87     651.93
106.97     605.00
107.07     670.66
107.17     629.00
107.27     642.00
107.37     667.00
107.47     642.00
107.57     732.00
107.67     678.00
107.77     702.00
107.87     643.78
107.97     692.00
108.07     567.00
108.17     646.00
108.27     693.33
108.37     644.00
108.47     641.00
108.57     637.67
108.67     647.00
108.77     667.51
108.87     706.00
108.97     672.00
109.07     674.00
109.17     700.00
109.27     708.00
109.37     653.00
109.47     667.77
109.57     678.00
109.67     683.00
109.77     613.00
109.87     616.00
109.97     656.50
110.07     602.00
110.17     595.00
110.27     543.00
110.37     614.00
110.47     598.00
110.57     571.53
110.67     571.00
110.77     567.51
110.87     556.00
110.97     555.88
111.07     539.00
111.17     573.00
111.27     548.00
111.37     493.94
111.47     540.70
111.57     541.00
111.67     554.00
111.77     563.00
111.87     515.76
111.97     503.00
112.07     570.00
112.17     572.54
112.27     525.00
112.37     571.64
112.47     540.00
112.57     599.98
112.67     598.84
112.77     593.00
112.87     559.54
112.97     616.00
113.07     634.26
113.17     528.00
113.27     582.00
113.37     662.49
113.47     629.00
113.57     678.62
113.67     652.00
113.77     672.00
113.87     698.00
113.97     721.00
114.07     779.00
114.17     785.00
114.27     798.00
114.37     874.00
114.47     960.00
114.57    1087.19
114.67    1105.23
114.77    1225.29
114.87    1412.00
114.97    1505.39
115.07    1670.57
115.17    1960.00
115.27    2185.00
115.37    2487.80
115.47    2852.00
115.57    2954.53
115.67    3461.00
115.77    3688.00
115.87    3995.00
115.97    4415.00
116.07    4804.00
116.17    5132.49
116.27    5452.00
116.37    5855.16
116.47    6230.00
116.57    6328.00
116.67    6566.18
116.77    6711.00
116.87    6778.71
116.97    6910.00
117.07    6838.00
117.17    6627.00
117.27    6302.21
117.37    6192.70
117.47    5867.00
117.57    5455.00
117.67    5405.00
117.77    4789.00
117.87    4477.00
117.97    4212.00
118.07    3798.00
118.17    3544.59
118.27    3110.00
118.37    2857.00
118.47    2542.00
118.57    2321.00
118.67    2091.00
118.77    1748.00
118.87    1623.00
118.97    1426.00
119.07    1293.42
119.17    1247.33
119.27    1137.00
119.37    1054.35
119.47     926.00
119.57     909.95
119.67     769.00
119.77     793.00
119.87     717.00
119.97     722.00
120.07     642.91
120.17     688.00
120.27     641.00
120.37     623.81
120.47     589.00
120.57     629.00
120.67     599.00
120.77     608.00
120.87     585.23
120.97     546.36
121.07     543.32
121.17     541.64
121.27     533.23
121.37     605.00
121.47     549.00
121.57     539.77
121.67     612.11
121.77     570.00
121.87     593.00
121.97     550.29
122.07     552.00
122.17     557.00
122.27     601.00
122.37     567.38
122.47     602.00
122.57     598.65
122.67     628.71
122.77     590.54
122.87     640.33
122.97     644.30
123.07     604.00
123.17     618.00
123.27     599.16
123.37     612.61
123.47     613.00
123.57     614.00
123.67     647.19
123.77     658.00
123.87     636.00
123.97     653.54
124.07     593.47
124.17     670.00
124.27     597.00
124.37     611.00
124.47     624.00
124.57     567.12
124.67     571.00
124.77     576.00
124.87     585.00
124.97     577.00
