  9.97     588.00
 10.07     591.00
 10.17     579.00
 10.27     648.00
 10.37     600.00
 10.47     625.00
 10.57     596.01
 10.67     562.00
 10.77     523.38
 10.87     643.00
 10.97     598.00
 11.07     621.00
 11.17     592.49
 11.27     613.59
 11.37     613.00
 11.47     584.00
 11.57     587.00
 11.67     640.00
 11.77     615.00
 11.87     669.00
 11.97     600.25
 12.07     620.31
 12.17     721.62
 12.27     672.00
 12.37     735.84
 12.47     617.63
 12.57     594.43
 12.67     586.00
 12.77     554.00
 12.87     600.86
 12.97     578.52
 13.07     586.00
 13.17     610.00
 13.27     586.60
 13.37     628.66
 13.47     614.27
 13.57     574.00
 13.67     551.74
 13.77     562.00
 13.87     584.73
 13.97     540.85
 14.07     548.00
 14.17     586.00
 14.27     571.60
 14.37     547.00
 14.47     550.00
 14.57     523.66
 14.67     549.00
 14.77     566.00
 14.87     548.00
 14.97     549.00
 15.07     573.00
 15.17     570.79
 15.27     551.49
 15.37     543.00
 15.47     541.46
 15.57     577.00
 15.67     555.48
 15.77     576.00
 15.87     571.70
 15.97     542.00
 16.07     599.36
 16.17     570.00
 16.27     620.64
 16.37     525.00
 16.47     543.00
 16.57     591.00
 16.67     560.31
 16.77     544.21
 16.87     556.00
 16.97     542.00
 17.07     565.26
 17.17     545.00
 17.27     578.78
 17.37     546.09
 17.47     595.00
 17.57     583.00
 17.67     544.00
 17.77     548.00
 17.87     568.00
 17.97     538.00
 18.07     567.00
 18.17     576.00
 18.27     557.08
 18.37     623.13
 18.47     551.00
 18.57     542.00
 18.67     613.00
 18.77     553.31
 18.87     534.98
 18.97     588.00
 19.07     546.00
 19.17     543.00
 19.27     563.00
 19.37     576.00
 19.47     581.00
 19.57     543.01
 19.67     584.00
 19.77     606.03
 19.87     615.47
 19.97     527.00
 20.07     600.00
 20.17     553.00
 20.27     535.00
 20.37     562.86
 20.47     547.39
 20.57     518.74
 20.67     551.00
 20.77     548.00
 20.87     574.91
 20.97     548.32
 21.07     547.00
 21.17     548.00
 21.27     559.00
 21.37     532.00
 21.47     588.35
 21.57     536.00
 21.67     565.37
 21.77     577.25
 21.87     601.36
 21.97     543.00
 22.07     573.00
 22.17     584.00
 22.27     577.00
 22.37     572.09
 22.47     543.00
 22.57     610.96
 22.67     575.57
 22.77     568.00
 22.87     556.00
 22.97     608.00
 23.07     596.00
 23.17     586.00
 23.27     566.00
 23.37     551.34
 23.47     531.00
 23.57     576.00
 23.67     538.79
 23.77     598.00
 23.87     519.00
 23.97     589.00
 24.07     552.48
 24.17     583.52
 24.27     546.00
 24.37     609.00
 24.47     596.70
 24.57     637.05
 24.67     668.70
 24.77     648.99
 24.87     647.00
 24.97     685.57
 25.07     647.00
 25.17     646.00
 25.27     576.00
 25.37     529.05
 25.47     595.00
 25.57     553.00
 25.67     601.00
 25.77     549.51
 25.87     609.00
 25.97     607.00
 26.07     581.00
 26.17     616.00
 26.27     565.00
 26.37     595.00
 26.47     598.00
 26.57     595.00
 26.67     606.88
 26.77     554.00
 26.87     524.36
 26.97     536.00
 27.07     525.21
 27.17     537.79
 27.27     645.00
 27.37     663.00
 27.47     621.00
 27.57     601.80
 27.67     613.00
 27.77     626.00
 27.87     596.33
 27.97     653.00
 28.07     670.25
 28.17     841.70
 28.27     838.52
 28.37     874.01
 28.47     917.00
 28.57     815.00
 28.67     744.00
 28.77     747.00
 28.87     773.94
 28.97     837.00
 29.07     814.00
 29.17     787.00
 29.27     758.00
 29.37     672.00
 29.47     665.00
 29.57     650.00
 29.67     599.00
 29.77     663.00
 29.87     596.38
 29.97     582.00
 30.07     601.00
 30.17     584.00
 30.27     615.00
 30.37     622.00
 30.47     555.00
 30.57     594.00
 30.67     633.00
 30.77     633.00
 30.87     642.00
 30.97     643.00
 31.07     683.00
 31.17     625.12
 31.27     616.00
 31.37     556.00
 31.47     587.00
 31.57     534.85
 31.67     562.00
 31.77     522.53
 31.87     559.00
 31.97     515.35
 32.07     589.00
 32.17     552.88
 32.27     569.39
 32.37     533.00
 32.47     559.00
 32.57     579.38
 32.67     559.53
 32.77     557.00
 32.87     541.22
 32.97     534.00
 33.07     588.00
 33.17     581.00
 33.27     581.97
 33.37     570.00
 33.47     566.00
 33.57     618.00
 33.67     637.00
 33.77     642.44
 33.87     735.00
 33.97     939.78
 34.07    1027.50
 34.17    1043.00
 34.27     953.00
 34.37     945.69
 34.47     793.52
 34.57     677.00
 34.67     596.90
 34.77     571.00
 34.87     600.36
 34.97     559.00
 35.07     597.26
 35.17     585.02
 35.27     584.38
 35.37     525.00
 35.47     543.00
 35.57     515.00
 35.67     510.00
 35.77     491.00
 35.87     503.00
 35.97     485.00
 36.07     485.00
 36.17     560.29
 36.27     550.31
 36.37     499.00
 36.47     565.88
 36.57     500.99
 36.67     564.99
 36.77     513.00
 36.87     504.00
 36.97     546.84
 37.07     538.00
 37.17     501.16
 37.27     475.00
 37.37     509.27
 37.47     469.81
 37.57     503.00
 37.67     559.00
 37.77     561.00
 37.87     535.00
 37.97     505.00
 38.07     501.00
 38.17     463.00
 38.27     521.06
 38.37     539.00
 38.47     537.63
 38.57     529.00
 38.67     501.47
 38.77     494.98
 38.87     499.00
 38.97     487.16
 39.07     475.00
 39.17     482.00
 39.27     469.91
 39.37     554.00
 39.47     548.00
 39.57     538.77
 39.67     553.14
 39.77     504.00
 39.87     476.42
 39.97     519.00
 40.07     517.00
 40.17     489.00
 40.27     549.00
 40.37     543.00
 40.47     487.00
 40.57     509.15
 40.67     487.00
 40.77     477.42
 40.87     483.00
 40.97     463.00
 41.07     505.00
 41.17     470.93
 41.27     502.08
 41.37     491.00
 41.47     466.00
 41.57     489.00
 41.67     472.19
 41.77     521.00
 41.87     482.00
 41.97     523.61
 42.07     534.00
 42.17     487.00
 42.27     494.00
 42.37     498.00
 42.47     574.68
 42.57     554.00
 42.67     570.00
 42.77     640.00
 42.87     569.00
 42.97     582.00
 43.07     630.84
 43.17     483.00
 43.27     522.00
 43.37     532.00
 43.47     480.00
 43.57     547.08
 43.67     507.00
 43.77     510.00
 43.87     500.00
 43.97     510.66
 44.07     491.00
 44.17     497.00
 44.27     517.00
 44.37     461.00
 44.47     528.00
 44.57     477.00
 44.67     527.50
 44.77     516.97
 44.87     497.00
 44.97     526.72
 45.07     492.00
 45.17     501.00
 45.27     484.81
 45.37     544.03
 45.47     500.00
 45.57     508.00
 45.67     536.17
 45.77     449.00
 45.87     537.27
 45.97     494.00
 46.07     494.00
 46.17     460.48
 46.27     535.92
 46.37     487.20
 46.47     437.00
 46.57     545.00
 46.67     512.00
 46.77     523.00
 46.87     500.04
 46.97     508.00
 47.07     476.00
 47.17     494.00
 47.27     534.00
 47.37     518.76
 47.47     539.00
 47.57     546.78
 47.67     572.00
 47.77     597.00
 47.87     560.02
 47.97     581.00
 48.07     608.41
 48.17     608.71
 48.27     547.51
 48.37     586.00
 48.47     546.00
 48.57     549.08
 48.67     510.62
 48.77     505.00
 48.87     553.00
 48.97     505.00
 49.07     513.00
 49.17     517.16
 49.27     561.00
 49.37     569.46
 49.47     576.00
 49.57     689.42
 49.67     679.00
 49.77     821.00
 49.87     992.80
 49.97    1361.00
 50.07    1695.00
 50.17    2019.51
 50.27    2372.00
 50.37    2401.56
 50.47    2187.00
 50.57    1999.00
 50.67    1539.00
 50.77    1251.00
 50.87     919.00
 50.97     863.52
 51.07     718.00
 51.17     651.00
 51.27     616.04
 51.37     610.00
 51.47     636.00
 51.57     609.21
 51.67     579.10
 51.77     611.00
 51.87     573.00
 51.97     541.00
 52.07     602.00
 52.17     555.00
 52.27     548.00
 52.37     616.00
 52.47     582.35
 52.57     572.00
 52.67     541.00
 52.77     569.95
 52.87     578.80
 52.97     607.00
 53.07     625.08
 53.17     721.76
 53.27     804.77
 53.37     906.32
 53.47    1097.67
 53.57    1099.00
 53.67    1220.77
 53.77    1173.00
 53.87    1151.00
 53.97    1029.85
 54.07     972.62
 54.17     774.00
 54.27     711.00
 54.37     666.00
 54.47     606.00
 54.57     585.38
 54.67     602.00
 54.77     606.91
 54.87     582.67
 54.97     558.00
 55.07     535.00
 55.17     574.00
 55.27     573.00
 55.37     598.00
 55.47     593.00
 55.57     586.00
 55.67     593.00
 55.77     590.00
 55.87     606.00
 55.97     653.48
 56.07     699.70
 56.17     771.49
 56.27     806.64
 56.37     917.00
 56.47    1048.69
 56.57    1287.00
 56.67    1566.00
 56.77    1781.00
 56.87    2194.00
 56.97    2418.00
 57.07    2447.00
 57.17    2510.00
 57.27    2188.00
 57.37    1975.00
 57.47    1628.00
 57.57    1355.80
 57.67    1168.75
 57.77     965.00
 57.87     807.37
 57.97     750.67
 58.07     707.16
 58.17     731.00
 58.27     720.73
 58.37     670.08
 58.47     817.03
 58.57     788.00
 58.67     897.00
 58.77     999.00
 58.87    1113.00
 58.97    1135.69
 59.07    1132.82
 59.17    1193.78
 59.27    1251.73
 59.37    1294.00
 59.47    1251.00
 59.57    1266.00
 59.67    1187.00
 59.77    1107.00
 59.87    1080.56
 59.97    1240.00
 60.07    1318.00
 60.17    1452.00
 60.27    1448.85
 60.37    1545.33
 60.47    1556.00
 60.57    1552.00
 60.67    1372.00
 60.77    1194.00
 60.87    1020.00
 60.97     911.00
 61.07     783.43
 61.17     762.75
 61.27     697.11
 61.37     699.00
 61.47     672.30
 61.57     719.00
 61.67     794.00
 61.77     807.06
 61.87     912.00
 61.97    1018.00
 62.07    1148.00
 62.17    1212.00
 62.27    1348.50
 62.37    1284.00
 62.47    1319.87
 62.57    1258.00
 62.67    1127.00
 62.77     974.00
 62.87     908.86
 62.97     736.00
 63.07     769.50
 63.17     633.00
 63.27     638.83
 63.37     619.82
 63.47     636.00
 63.57     613.33
 63.67     570.15
 63.77     624.62
 63.87     633.00
 63.97     573.89
 64.07     677.00
 64.17     687.13
 64.27     778.96
 64.37     796.00
 64.47     822.98
 64.57     921.00
 64.67     921.00
 64.77    1029.82
 64.87     999.00
 64.97    1007.00
 65.07     936.41
 65.17     933.00
 65.27     830.82
 65.37     774.00
 65.47     705.00
 65.57     726.00
 65.67     650.76
 65.77     678.00
 65.87     636.07
 65.97     614.00
 66.07     566.60
 66.17     608.00
 66.27     535.94
 66.37     543.00
 66.47     545.00
 66.57     581.55
 66.67     575.00
 66.77     543.00
 66.87     585.00
 66.97     584.00
 67.07     662.04
 67.17     715.22
 67.27     639.00
 67.37     751.48
 67.47     813.00
 67.57     896.00
 67.67    1074.00
 67.77    1302.47
 67.87    1462.00
 67.97    1713.00
 68.07    2001.00
 68.17    2109.71
 68.27    2253.00
 68.37    2374.00
 68.47    2294.29
 68.57    2121.00
 68.67    1917.57
 68.77    1743.00
 68.87    1325.65
 68.97    1168.00
 69.07     967.90
 69.17     853.00
 69.27     780.23
 69.37     767.91
 69.47     725.02
 69.57     637.00
 69.67     615.77
 69.77     612.54
 69.87     607.00
 69.97     646.00
 70.07     554.51
 70.17     621.00
 70.27     583.00
 70.37     600.00
 70.47     582.00
 70.57     573.00
 70.67     595.66
 70.77     608.00
 70.87     632.94
 70.97     606.00
 71.07     618.00
 71.17     653.00
 71.27     707.27
 71.37     767.00
 71.47     854.70
 71.57     932.00
 71.67    1011.00
 71.77    1309.91
 71.87    1352.00
 71.97    1538.00
 72.07    1766.42
 72.17    1854.25
 72.27    1831.00
 72.37    1794.71
 72.47    1705.05
 72.57    1655.00
 72.67    1472.00
 72.77    1197.45
 72.87    1236.00
 72.97    1052.00
 73.07     889.80
 73.17     836.00
 73.27     815.00
 73.37     723.99
 73.47     633.00
 73.57     686.00
 73.67     604.00
 73.77     611.98
 73.87     574.00
 73.97     587.79
 74.07     551.63
 74.17     584.93
 74.27     534.75
 74.37     617.00
 74.47     574.83
 74.57     599.00
 74.67     592.00
 74.77     628.00
 74.87     514.72
 74.97     639.00
 75.07     614.00
 75.17     634.00
 75.27     534.81
 75.37     580.00
 75.47     555.00
 75.57     506.50
 75.67     607.00
 75.77     571.00
 75.87     590.00
 75.97     587.00
 76.07     570.89
 76.17     581.00
 76.27     639.00
 76.37     625.00
 76.47     641.00
 76.57     710.36
 76.67     710.00
 76.77     690.00
 76.87     676.00
 76.97     689.00
 77.07     701.00
 77.17     634.00
 77.27     668.00
 77.37     651.00
 77.47     581.36
 77.57     582.00
 77.67     583.10
 77.77     557.00
 77.87     516.00
 77.97     493.12
 78.07     529.00
 78.17     516.00
 78.27     568.00
 78.37     479.08
 78.47     507.00
 78.57     558.41
 78.67     538.00
 78.77     550.38
 78.87     484.00
 78.97     535.00
 79.07     503.71
 79.17     447.00
 79.27     517.84
 79.37     502.00
 79.47     502.00
 79.57     493.00
 79.67     471.52
 79.77     526.29
 79.87     498.56
 79.97     558.00
 80.07     523.00
 80.17     585.08
 80.27     553.00
 80.37     591.45
 80.47     511.00
 80.57     571.15
 80.67     621.21
 80.77     646.14
 80.87     627.00
 80.97     615.00
 81.07     626.00
 81.17     687.00
 81.27     679.19
 81.37     714.05
 81.47     675.03
 81.57     716.00
 81.67     694.00
 81.77     761.14
 81.87     695.93
 81.97     740.91
 82.07     728.00
 82.17     705.00
 82.27     673.00
 82.37     713.57
 82.47     679.00
 82.57     681.96
 82.67     588.00
 82.77     579.00
 82.87     594.53
 82.97     617.51
 83.07     560.00
 83.17     575.00
 83.27     506.00
 83.37     542.00
 83.47     571.00
 83.57     503.38
 83.67     541.00
 83.77     552.58
 83.87     605.15
 83.97     512.27
 84.07     517.81
 84.17     480.00
 84.27     521.00
 84.37     520.00
 84.47     578.93
 84.57     529.00
 84.67     530.03
 84.77     602.00
 84.87     533.33
 84.97     523.00
 85.07     492.64
 85.17     514.20
 85.27     521.00
 85.37     551.00
 85.47     494.00
 85.57     512.00
 85.67     545.00
 85.77     495.00
 85.87     509.00
 85.97     488.00
 86.07     538.00
 86.17     561.00
 86.27     485.00
 86.37     525.00
 86.47     529.00
 86.57     557.00
 86.67     558.03
 86.77     544.00
 86.87     515.00
 86.97     596.29
 87.07     548.00
 87.17     561.00
 87.27     559.00
 87.37     590.00
 87.47     617.00
 87.57     641.00
 87.67     585.00
 87.77     634.00
 87.87     627.00
 87.97     604.38
 88.07     635.73
 88.17     644.00
 88.27     566.73
 88.37     587.00
 88.47     603.00
 88.57     551.00
 88.67     545.00
 88.77     596.79
 88.87     533.00
 88.97     573.00
 89.07     605.98
 89.17     579.00
 89.27     605.00
 89.37     591.00
 89.47     609.00
 89.57     569.99
 89.67     597.00
 89.77     640.00
 89.87     614.59
 89.97     543.00
 90.07     563.45
 90.17     592.00
 90.27     518.00
 90.37     518.61
 90.47     547.00
 90.57     523.00
 90.67     506.00
 90.77     561.13
 90.87     549.00
 90.97     499.66
 91.07     528.15
 91.17     523.70
 91.27     494.00
 91.37     510.00
 91.47     542.38
 91.57     540.00
 91.67     475.40
 91.77     507.00
 91.87     471.00
 91.97     520.00
 92.07     576.91
 92.17     538.00
 92.27     569.00
 92.37     545.00
 92.47     547.00
 92.57     597.91
 92.67     567.00
 92.77     617.00
 92.87     590.66
 92.97     628.00
 93.07     681.00
 93.17     658.00
 93.27     676.00
 93.37     706.00
 93.47     748.00
 93.57     734.00
 93.67     749.20
 93.77     788.00
 93.87     754.89
 93.97     735.66
 94.07     830.00
 94.17     875.00
 94.27     806.39
 94.37     862.00
 94.47     875.00
 94.57     814.41
 94.67     879.00
 94.77     858.00
 94.87     916.02
 94.97     879.00
 95.07     946.00
 95.17     862.00
 95.27     905.00
 95.37     887.00
 95.47     909.00
 95.57     818.00
 95.67     814.10
 95.77     769.00
 95.87     775.00
 95.97     714.00
 96.07     740.00
 96.17     711.60
 96.27     746.22
 96.37     685.00
 96.47     696.00
 96.57     745.00
 96.67     772.45
 96.77     863.00
 96.87     879.28
 96.97     919.62
 97.07    1017.00
 97.17    1117.23
 97.27    1088.00
 97.37    1267.95
 97.47    1248.00
 97.57    1368.00
 97.67    1403.00
 97.77    1419.00
 97.87    1440.28
 97.97    1492.68
 98.07    1422.00
 98.17    1408.36
 98.27    1418.00
 98.37    1266.00
 98.47    1169.00
 98.57    1215.00
 98.67    1142.00
 98.77    1072.00
 98.87     917.00
 98.97     936.00
 99.07     891.00
 99.17     891.00
 99.27     894.00
 99.37     880.00
 99.47     946.00
 99.57     925.00
 99.67     919.00
 99.77    1007.00
 99.87    1144.92
 99.97    1144.00
100.07    1316.17
100.17    1297.00
100.27    1407.15
100.37    1507.00
100.47    1692.00
100.57    1709.00
100.67    1855.74
100.77    1914.04
100.87    1976.71
100.97    1986.00
101.07    1962.00
101.17    1880.63
101.27    1994.00
101.37    1978.00
101.47    1889.00
101.57    1863.76
101.67    1819.00
101.77    1770.00
101.87    1691.11
101.97    1567.00
102.07    1445.00
102.17    1447.23
102.27    1359.66
102.37    1332.00
102.47    1247.53
102.57    1275.92
102.67    1205.00
102.77    1183.18
102.87    1217.13
102.97    1153.06
103.07    1039.00
103.17    1077.00
103.27    1105.83
103.37     978.70
103.47     924.00
103.57     954.42
103.67     916.59
103.77     822.00
103.87     800.00
103.97     722.29
104.07     751.67
104.17     697.00
104.27     733.00
104.37     685.92
104.47     608.00
104.57     574.99
104.67     591.68
104.77     542.00
104.87     522.66
104.97     570.00
105.07     518.55
105.17     592.00
105.27     537.00
105.37     530.00
105.47     551.05
105.57     532.37
105.67     509.00
105.77     551.00
105.87     536.00
105.97     546.11
106.07     575.00
106.17     511.00
106.27     542.00
106.37     539.18
106.47     559.00
106.57     580.00
106.67     565.00
106.77     566.00
106.87     616.00
106.97     591.91
107.07     642.00
107.17     599.69
107.27     630.00
107.37     690.88
107.47     685.31
107.57     682.31
107.67     647.93
107.77     651.00
107.87     737.00
107.97     680.03
108.07     741.94
108.17     679.13
108.27     635.00
108.37     706.00
108.47     693.00
108.57     680.18
108.67     664.71
108.77     718.53
108.87     689.00
108.97     690.00
109.07     645.14
109.17     646.70
109.27     717.29
109.37     709.00
109.47     679.51
109.57     690.00
109.67     653.84
109.77     701.00
109.87     717.25
109.97     644.00
110.07     684.93
110.17     585.00
110.27     608.00
110.37     640.00
110.47     621.00
110.57     624.45
110.67     560.00
110.77     539.60
110.87     545.00
110.97     556.00
111.07     575.15
111.17     577.00
111.27     583.00
111.37     545.78
111.47     546.54
111.57     547.00
111.67     547.00
111.77     575.00
111.87     486.93
111.97     550.00
112.07     518.07
112.17     540.00
112.27     576.42
112.37     558.00
112.47     558.00
112.57     563.00
112.67     520.00
112.77     556.00
112.87     558.00
112.97     597.00
113.07     584.00
113.17     587.62
113.27     550.00
113.37     522.00
113.47     595.10
113.57     601.00
113.67     627.00
113.77     615.00
113.87     586.85
113.97     681.00
114.07     631.01
114.17     736.49
114.27     799.00
114.37     720.08
114.47     855.05
114.57     914.00
114.67     954.00
114.77    1065.85
114.87    1078.85
114.97    1162.46
115.07    1495.00
115.17    1582.00
115.27    1803.16
115.37    1951.00
115.47    2341.00
115.57    2535.00
115.67    2768.22
115.77    3061.00
115.87    3420.00
115.97    3780.00
116.07    3937.48
116.17    4464.00
116.27    4752.00
116.37    5061.00
116.47    5507.35
116.57    5905.00
116.67    6390.00
116.77    6486.33
116.87    6587.00
116.97    6840.13
117.07    6996.00
117.17    6960.00
117.27    6720.68
117.37    6710.11
117.47    6469.00
117.57    6229.78
117.67    5969.00
117.77    5680.00
117.87    5298.00
117.97    5011.00
118.07    4616.00
118.17    4258.00
118.27    4118.19
118.37    3666.00
118.47    3467.31
118.57    3138.00
118.67    2702.00
118.77    2316.00
118.87    2192.97
118.97    1858.00
119.07    1788.00
119.17    1593.00
119.27    1511.51
119.37    1339.00
119.47    1263.00
119.57    1094.00
119.67    1060.00
119.77     935.78
119.87     965.66
119.97     855.00
120.07     829.00
120.17     810.39
120.27     764.38
120.37     757.97
120.47     649.60
120.57     682.00
120.67     672.86
120.77     641.00
120.87     647.00
120.97     618.00
121.07     578.00
121.17     607.00
121.27     584.56
121.37     576.00
121.47     584.00
121.57     647.68
121.67     589.00
121.77     570.00
121.87     579.00
121.97     575.00
122.07     570.00
122.17     559.00
122.27     614.00
122.37     597.00
122.47     607.00
122.57     578.00
122.67     624.43
122.77     655.00
122.87     607.89
122.97     650.00
123.07     658.00
123.17     649.00
123.27     664.00
123.37     614.00
123.47     643.49
123.57     658.00
123.67     574.04
123.77     672.14
123.87     614.59
123.97     586.58
124.07     653.00
124.17     614.33
124.27     591.00
124.37     613.00
124.47     595.00
124.57     616.00
124.67     548.52
124.77     610.73
124.87     561.40
124.97     533.91
