  9.97     531.20
 10.07     592.00
 10.17     608.00
 10.27     606.12
 10.37     595.00
 10.47     594.00
 10.57     598.00
 10.67     552.00
 10.77     539.81
 10.87     605.33
 10.97     605.00
 11.07     576.42
 11.17     590.00
 11.27     527.00
 11.37     559.00
 11.47     585.66
 11.57     606.00
 11.67     568.00
 11.77     540.73
 11.87     572.42
 11.97     642.00
 12.07     715.00
 12.17     682.00
 12.27     678.00
 12.37     657.49
 12.47     616.00
 12.57     629.75
 12.67     579.00
 12.77     555.00
 12.87     619.95
 12.97     552.20
 13.07     611.15
 13.17     589.00
 13.27     546.00
 13.37     555.63
 13.47     549.64
 13.57     569.00
 13.67     566.00
 13.77     577.00
 13.87     553.00
 13.97     525.00
 14.07     547.00
 14.17     538.00
 14.27     609.17
 14.37     552.00
 14.47     596.33
 14.57     581.00
 14.67     531.00
 14.77     610.36
 14.87     494.00
 14.97     537.00
 15.07     522.62
 15.17     558.00
 15.27     525.56
 15.37     524.00
 15.47     548.00
 15.57     557.00
 15.67     551.00
 15.77     584.00
 15.87     541.00
 15.97     572.17
 16.07     594.00
 16.17     542.74
 16.27     552.00
 16.37     536.00
 16.47     558.00
 16.57     566.00
 16.67     560.00
 16.77     576.00
 16.87     546.00
 16.97     562.00
 17.07     599.00
 17.17     558.00
 17.27     554.82
 17.37     571.81
 17.47     610.06
 17.57     527.69
 17.67     529.00
 17.77     605.00
 17.87     570.00
 17.97     582.00
 18.07     570.00
 18.17     553.00
 18.27     563.24
 18.37     555.00
 18.47     518.28
 18.57     598.00
 18.67     573.46
 18.77     540.00
 18.87     590.57
 18.97     584.00
 19.07     542.95
 19.17     518.00
 19.27     526.27
 19.37     492.00
 19.47     562.27
 19.57     552.00
 19.67     546.00
 19.77     565.39
 19.87     565.51
 19.97     572.96
 20.07     556.00
 20.17     564.00
 20.27     540.00
 20.37     596.25
 20.47     534.48
 20.57     541.00
 20.67     544.00
 20.77     543.00
 20.87     540.00
 20.97     537.58
 21.07     514.16
 21.17     546.05
 21.27     531.99
 21.37     564.46
 21.47     555.00
 21.57     545.00
 21.67     540.89
 21.77     546.78
 21.87     538.00
 21.97     529.00
 22.07     527.00
 22.17     551.00
 22.27     522.00
 22.37     561.59
 22.47     563.00
 22.57     571.90
 22.67     524.81
 22.77     531.11
 22.87     545.73
 22.97     531.79
 23.07     586.71
 23.17     554.00
 23.27     562.79
 23.37     597.00
 23.47     547.00
 23.57     541.00
 23.67     594.00
 23.77     520.73
 23.87     597.67
 23.97     563.00
 24.07     592.37
 24.17     523.00
 24.27     573.00
 24.37     602.75
 24.47     586.00
 24.57     582.61
 24.67     592.00
 24.77     690.00
 24.87     649.00
 24.97     583.37
 25.07     611.00
 25.17     574.00
 25.27     564.00
 25.37     530.43
 25.47     525.00
 25.57     571.00
 25.67     549.82
 25.77     569.75
 25.87     560.00
 25.97     518.00
 26.07     568.00
 26.17     537.00
 26.27     528.00
 26.37     569.00
 26.47     593.00
 26.57     542.00
 26.67     587.00
 26.77     522.17
 26.87     568.00
 26.97     540.00
 27.07     552.44
 27.17     534.00
 27.27     582.00
 27.37     519.30
 27.47     560.38
 27.57     580.00
 27.67     596.96
 27.77     585.00
 27.87     617.00
 27.97     636.86
 28.07     726.79
 28.17     903.00
 28.27     945.35
 28.37     955.15
 28.47     764.00
 28.57     740.00
 28.67     750.00
 28.77     732.18
 28.87     761.00
 28.97     803.00
 29.07     806.11
 29.17     676.15
 29.27     621.00
 29.37     591.00
 29.47     577.00
 29.57     559.57
 29.67     571.65
 29.77     552.27
 29.87     565.00
 29.97     528.77
 30.07     599.00
 30.17     549.00
 30.27     548.16
 30.37     555.00
 30.47     509.00
 30.57     564.44
 30.67     602.00
 30.77     562.00
 30.87     633.00
 30.97     605.00
 31.07     611.00
 31.17     551.08
 31.27     543.00
 31.37     574.35
 31.47     591.00
 31.57     541.00
 31.67     527.00
 31.77     528.00
 31.87     572.00
 31.97     543.00
 32.07     551.00
 32.17     537.55
 32.27     587.00
 32.37     556.00
 32.47     565.00
 32.57     557.63
 32.67     554.00
 32.77     494.00
 32.87     493.81
 32.97     494.53
 33.07     568.00
 33.17     489.44
 33.27     512.00
 33.37     590.28
 33.47     572.00
 33.57     568.00
 33.67     654.17
 33.77     734.36
 33.87     865.00
 33.97     990.30
 34.07    1063.00
 34.17    1033.17
 34.27     846.00
 34.37     768.93
 34.47     644.00
 34.57     573.78
 34.67     556.00
 34.77     578.00
 34.87     550.00
 34.97     551.00
 35.07     523.00
 35.17     533.66
 35.27     481.38
 35.37     552.03
 35.47     506.00
 35.57     512.00
 35.67     502.49
 35.77     498.00
 35.87     526.00
 35.97     538.00
 36.07     509.00
 36.17     524.00
 36.27     475.90
 36.37     477.50
 36.47     523.25
 36.57     469.90
 36.67     516.29
 36.77     466.63
 36.87     478.37
 36.97     521.00
 37.07     497.00
 37.17     557.00
 37.27     476.80
 37.37     508.43
 37.47     548.61
 37.57     511.00
 37.67     486.00
 37.77     495.00
 37.87     523.00
 37.97     558.68
 38.07     549.32
 38.17     545.01
 38.27     494.00
 38.37     483.00
 38.47     522.08
 38.57     522.00
 38.67     522.00
 38.77     528.58
 38.87     511.00
 38.97     461.00
 39.07     520.00
 39.17     471.00
 39.27     497.03
 39.37     468.00
 39.47     460.81
 39.57     480.76
 39.67     534.82
 39.77     481.00
 39.87     474.86
 39.97     487.00
 40.07     493.00
 40.17     493.00
 40.27     487.00
 40.37     519.00
 40.47     479.00
 40.57     492.39
 40.67     450.00
 40.77     503.00
 40.87     498.00
 40.97     481.26
 41.07     472.46
 41.17     473.00
 41.27     499.00
 41.37     477.00
 41.47     516.00
 41.57     481.00
 41.67     531.57
 41.77     475.00
 41.87     493.00
 41.97     512.00
 42.07     515.00
 42.17     511.00
 42.27     541.76
 42.37     550.00
 42.47     523.00
 42.57     561.28
 42.67     606.00
 42.77     615.00
 42.87     591.78
 42.97     539.00
 43.07     512.00
 43.17     468.00
 43.27     562.24
 43.37     524.35
 43.47     514.00
 43.57     511.00
 43.67     519.68
 43.77     459.00
 43.87     475.00
 43.97     461.00
 44.07     519.00
 44.17     521.00
 44.27     539.00
 44.37     513.00
 44.47     456.49
 44.57     547.00
 44.67     474.00
 44.77     536.00
 44.87     475.73
 44.97     525.89
 45.07     469.24
 45.17     489.27
 45.27     473.10
 45.37     525.00
 45.47     492.87
 45.57     514.25
 45.67     518.00
 45.77     543.00
 45.87     503.00
 45.97     469.00
 46.07     500.00
 46.17     496.00
 46.27     474.00
 46.37     507.00
 46.47     543.00
 46.57     474.00
 46.67     503.00
 46.77     528.42
 46.87     515.65
 46.97     505.89
 47.07     466.47
 47.17     481.00
 47.27     485.00
 47.37     521.70
 47.47     508.21
 47.57     549.00
 47.67     532.75
 47.77     651.00
 47.87     538.15
 47.97     611.90
 48.07     603.03
 48.17     559.77
 48.27     567.69
 48.37     514.00
 48.47     522.00
 48.57     530.63
 48.67     515.00
 48.77     504.00
 48.87     570.00
 48.97     557.01
 49.07     518.57
 49.17     599.87
 49.27     540.00
 49.37     570.93
 49.47     637.00
 49.57     727.00
 49.67     875.00
 49.77    1036.04
 49.87    1468.00
 49.97    1801.00
 50.07    2201.46
 50.17    2481.71
 50.27    2526.03
 50.37    2224.00
 50.47    1956.59
 50.57    1439.75
 50.67    1188.51
 50.77     852.00
 50.87     761.00
 50.97     684.00
 51.07     646.00
 51.17     630.00
 51.27     648.00
 51.37     536.05
 51.47     607.64
 51.57     533.45
 51.67     545.00
 51.77     508.38
 51.87     537.13
 51.97     549.00
 52.07     562.00
 52.17     547.00
 52.27     541.00
 52.37     569.50
 52.47     535.15
 52.57     575.00
 52.67     620.00
 52.77     608.00
 52.87     656.00
 52.97     728.93
 53.07     744.14
 53.17     938.00
 53.27     988.00
 53.37    1118.00
 53.47    1233.02
 53.57    1151.00
 53.67    1143.00
 53.77    1012.00
 53.87     947.80
 53.97     729.00
 54.07     711.93
 54.17     598.00
 54.27     617.00
 54.37     595.00
 54.47     574.00
 54.57     539.00
 54.67     509.92
 54.77     523.28
 54.87     506.25
 54.97     587.00
 55.07     560.00
 55.17     561.00
 55.27     587.00
 55.37     593.00
 55.47     626.00
 55.57     527.22
 55.67     572.00
 55.77     583.00
 55.87     627.50
 55.97     596.99
 56.07     672.54
 56.17     813.56
 56.27     916.00
 56.37    1089.00
 56.47    1488.03
 56.57    1762.00
 56.67    2201.64
 56.77    2363.74
 56.87    2628.00
 56.97    2634.23
 57.07    2333.00
 57.17    2017.41
 57.27    1721.00
 57.37    1418.00
 57.47    1178.67
 57.57     965.00
 57.67     808.00
 57.77     699.93
 57.87     647.74
 57.97     637.11
 58.07     702.43
 58.17     685.80
 58.27     735.00
 58.37     785.00
 58.47     859.00
 58.57    1049.46
 58.67    1103.00
 58.77    1205.00
 58.87    1294.00
 58.97    1302.00
 59.07    1369.00
 59.17    1358.00
 59.27    1275.13
 59.37    1321.00
 59.47    1251.00
 59.57    1151.00
 59.67    1173.00
 59.77    1200.00
 59.87    1307.00
 59.97    1311.45
 60.07    1461.00
 60.17    1514.00
 60.27    1608.00
 60.37    1432.52
 60.47    1431.11
 60.57    1186.56
 60.67    1061.19
 60.77     932.00
 60.87     773.70
 60.97     781.60
 61.07     678.00
 61.17     637.75
 61.27     643.00
 61.37     627.00
 61.47     736.00
 61.57     766.00
 61.67     890.00
 61.77     957.00
 61.87    1097.00
 61.97    1298.92
 62.07    1311.00
 62.17    1310.00
 62.27    1371.40
 62.37    1368.00
 62.47    1133.00
 62.57    1053.00
 62.67     885.00
 62.77     772.24
 62.87     641.00
 62.97     686.47
 63.07     590.00
 63.17     548.31
 63.27     602.00
 63.37     608.00
 63.47     611.00
 63.57     599.70
 63.67     572.00
 63.77     550.00
 63.87     597.00
 63.97     653.00
 64.07     755.00
 64.17     764.00
 64.27     852.59
 64.37     909.00
 64.47     897.24
 64.57    1020.35
 64.67    1094.00
 64.77    1040.00
 64.87     937.67
 64.97     921.77
 65.07     865.00
 65.17     788.00
 65.27     762.00
 65.37     691.72
 65.47     603.00
 65.57     606.00
 65.67     622.00
 65.77     574.00
 65.87     591.21
 65.97     567.00
 66.07     604.00
 66.17     571.00
 66.27     507.00
 66.37     570.00
 66.47     583.64
 66.57     576.00
 66.67     544.84
 66.77     559.00
 66.87     621.00
 66.97     606.00
 67.07     692.51
 67.17     744.24
 67.27     758.00
 67.37     915.00
 67.47    1084.00
 67.57    1342.00
 67.67    1583.00
 67.77    1793.00
 67.87    2049.00
 67.97    2373.00
 68.07    2406.88
 68.17    2443.00
 68.27    2325.00
 68.37    2183.56
 68.47    1818.04
 68.57    1570.16
 68.67    1354.34
 68.77    1126.00
 68.87     861.00
 68.97     826.00
 69.07     793.00
 69.17     629.63
 69.27     611.00
 69.37     580.00
 69.47     548.00
 69.57     595.00
 69.67     575.00
 69.77     584.07
 69.87     528.64
 69.97     585.00
 70.07     597.00
 70.17     547.00
 70.27     563.00
 70.37     615.52
 70.47     541.00
 70.57     563.00
 70.67     599.00
 70.77     638.00
 70.87     585.00
 70.97     667.05
 71.07     677.00
 71.17     724.00
 71.27     813.00
 71.37    1013.29
 71.47    1101.00
 71.57    1227.95
 71.67    1437.77
 71.77    1605.00
 71.87    1747.00
 71.97    1879.00
 72.07    1954.63
 72.17    1925.00
 72.27    1726.00
 72.37    1550.00
 72.47    1490.00
 72.57    1260.91
 72.67    1115.00
 72.77    1074.00
 72.87     864.00
 72.97     825.00
 73.07     758.00
 73.17     772.08
 73.27     736.66
 73.37     686.00
 73.47     634.43
 73.57     639.79
 73.67     622.00
 73.77     571.00
 73.87     585.87
 73.97     596.34
 74.07     571.00
 74.17     577.00
 74.27     604.51
 74.37     573.26
 74.47     628.00
 74.57     644.00
 74.67     565.92
 74.77     575.84
 74.87     593.00
 74.97     624.00
 75.07     518.65
 75.17     553.69
 75.27     553.00
 75.37     596.00
 75.47     534.00
 75.57     577.95
 75.67     550.00
 75.77     528.53
 75.87     573.29
 75.97     609.00
 76.07     667.00
 76.17     688.85
 76.27     647.00
 76.37     643.89
 76.47     715.38
 76.57     697.28
 76.67     740.00
 76.77     740.64
 76.87     638.73
 76.97     606.21
 77.07     599.56
 77.17     622.83
 77.27     556.00
 77.37     538.00
 77.47     526.70
 77.57     507.94
 77.67     531.00
 77.77     517.00
 77.87     530.00
 77.97     490.75
 78.07     525.00
 78.17     518.00
 78.27     501.00
 78.37     488.69
 78.47     508.00
 78.57     514.00
 78.67     486.00
 78.77     475.00
 78.87     514.00
 78.97     531.00
 79.07     542.53
 79.17     567.12
 79.27     500.00
 79.37     533.87
 79.47     539.98
 79.57     499.00
 79.67     571.18
 79.77     540.76
 79.87     506.19
 79.97     543.00
 80.07     567.00
 80.17     514.85
 80.27     582.00
 80.37     503.00
 80.47     583.66
 80.57     578.11
 80.67     625.00
 80.77     643.00
 80.87     662.66
 80.97     685.00
 81.07     721.00
 81.17     664.00
 81.27     773.00
 81.37     729.00
 81.47     729.00
 81.57     775.30
 81.67     698.00
 81.77     725.00
 81.87     733.50
 81.97     655.00
 82.07     648.36
 82.17     684.00
 82.27     596.00
 82.37     647.00
 82.47     635.74
 82.57     597.00
 82.67     625.53
 82.77     580.00
 82.87     546.00
 82.97     555.00
 83.07     562.00
 83.17     564.00
 83.27     574.40
 83.37     546.00
 83.47     541.00
 83.57     543.01
 83.67     537.00
 83.77     544.00
 83.87     563.00
 83.97     553.00
 84.07     612.94
 84.17     591.00
 84.27     514.00
 84.37     547.00
 84.47     504.00
 84.57     534.23
 84.67     545.00
 84.77     512.88
 84.87     494.18
 84.97     555.64
 85.07     513.77
 85.17     586.00
 85.27     516.00
 85.37     532.00
 85.47     493.89
 85.57     535.10
 85.67     543.00
 85.77     497.94
 85.87     547.00
 85.97     561.44
 86.07     533.00
 86.17     560.00
 86.27     482.00
 86.37     562.00
 86.47     547.00
 86.57     508.00
 86.67     550.00
 86.77     597.00
 86.87     621.00
 86.97     617.00
 87.07     591.01
 87.17     607.99
 87.27     614.56
 87.37     600.39
 87.47     657.00
 87.57     644.00
 87.67     588.45
 87.77     594.00
 87.87     598.00
 87.97     634.00
 88.07     591.00
 88.17     623.13
 88.27     587.61
 88.37     565.00
 88.47     598.00
 88.57     609.41
 88.67     597.00
 88.77     523.91
 88.87     535.20
 88.97     590.00
 89.07     598.90
 89.17     572.00
 89.27     634.00
 89.37     633.00
 89.47     581.00
 89.57     577.00
 89.67     582.89
 89.77     567.00
 89.87     617.50
 89.97     588.87
 90.07     566.00
 90.17     545.76
 90.27     518.00
 90.37     556.00
 90.47     534.00
 90.57     541.00
 90.67     511.34
 90.77     496.00
 90.87     509.15
 90.97     522.00
 91.07     460.00
 91.17     528.81
 91.27     548.00
 91.37     544.00
 91.47     521.00
 91.57     541.00
 91.67     519.00
 91.77     519.69
 91.87     581.20
 91.97     560.63
 92.07     583.00
 92.17     571.00
 92.27     577.00
 92.37     609.21
 92.47     628.00
 92.57     619.00
 92.67     642.00
 92.77     636.00
 92.87     659.16
 92.97     689.69
 93.07     763.55
 93.17     779.00
 93.27     755.49
 93.37     797.84
 93.47     751.00
 93.57     764.00
 93.67     818.00
 93.77     798.00
 93.87     757.50
 93.97     861.00
 94.07     881.08
 94.17     849.00
 94.27     868.00
 94.37     921.00
 94.47     869.42
 94.57     886.00
 94.67     858.00
 94.77     934.00
 94.87     875.00
 94.97     871.72
 95.07     849.12
 95.17     919.00
 95.27     826.84
 95.37     825.00
 95.47     822.00
 95.57     780.00
 95.67     738.00
 95.77     708.00
 95.87     718.00
 95.97     740.00
 96.07     715.48
 96.17     682.00
 96.27     787.00
 96.37     744.00
 96.47     825.00
 96.57     887.06
 96.67     932.62
 96.77     943.20
 96.87    1126.69
 96.97    1118.00
 97.07    1260.00
 97.17    1253.00
 97.27    1336.35
 97.37    1450.52
 97.47    1429.00
 97.57    1399.16
 97.67    1403.26
 97.77    1459.42
 97.87    1379.00
 97.97    1264.00
 98.07    1261.00
 98.17    1171.00
 98.27    1156.00
 98.37    1018.00
 98.47     970.70
 98.57     948.00
 98.67     919.74
 98.77     835.00
 98.87     826.00
 98.97     888.48
 99.07     840.00
 99.17     883.00
 99.27     908.00
 99.37     940.00
 99.47    1021.00
 99.57    1135.00
 99.67    1134.00
 99.77    1274.19
 99.87    1435.00
 99.97    1424.00
100.07    1577.00
100.17    1732.00
100.27    1798.64
100.37    1849.12
100.47    1936.00
100.57    2093.00
100.67    2050.00
100.77    2039.00
100.87    2040.00
100.97    2028.00
101.07    2014.37
101.17    1886.00
101.27    1801.00
101.37    1661.34
101.47    1573.00
101.57    1469.00
101.67    1483.00
101.77    1318.83
101.87    1328.00
101.97    1253.00
102.07    1230.28
102.17    1202.88
102.27    1194.00
102.37    1143.00
102.47    1082.00
102.57    1088.39
102.67    1035.00
102.77    1080.00
102.87    1013.00
102.97    1004.00
103.07     978.00
103.17     903.00
103.27     903.00
103.37     856.00
103.47     825.72
103.57     711.29
103.67     720.00
103.77     660.00
103.87     699.43
103.97     618.00
104.07     583.53
104.17     620.00
104.27     573.00
104.37     586.00
104.47     546.63
104.57     591.86
104.67     585.00
104.77     533.00
104.87     543.55
104.97     554.00
105.07     530.50
105.17     559.21
105.27     545.00
105.37     562.24
105.47     526.00
105.57     580.83
105.67     624.00
105.77     510.68
105.87     579.00
105.97     571.86
106.07     596.66
106.17     532.00
106.27     578.00
106.37     600.00
106.47     568.00
106.57     621.00
106.67     608.23
106.77     635.00
106.87     688.00
106.97     670.31
107.07     687.00
107.17     684.80
107.27     672.22
107.37     709.22
107.47     645.08
107.57     690.00
107.67     672.35
107.77     699.09
107.87     668.00
107.97     664.00
108.07     673.00
108.17     685.00
108.27     643.00
108.37     646.00
108.47     667.00
108.57     655.00
108.67     725.00
108.77     719.35
108.87     689.00
108.97     649.00
109.07     672.00
109.17     684.00
109.27     709.46
109.37     671.00
109.47     678.36
109.57     649.29
109.67     578.36
109.77     603.16
109.87     597.95
109.97     605.00
110.07     618.00
110.17     565.85
110.27     604.00
110.37     567.28
110.47     515.56
110.57     552.00
110.67     565.00
110.77     536.00
110.87     536.00
110.97     518.65
111.07     536.00
111.17     569.17
111.27     592.00
111.37     537.00
111.47     512.00
111.57     525.00
111.67     496.84
111.77     529.00
111.87     526.00
111.97     559.00
112.07     546.76
112.17     576.00
112.27     558.18
112.37     558.00
112.47     582.19
112.57     629.85
112.67     566.06
112.77     557.00
112.87     659.25
112.97     584.00
113.07     683.31
113.17     638.00
113.27     643.00
113.37     681.00
113.47     691.00
113.57     732.30
113.67     669.00
113.77     710.00
113.87     746.00
113.97     836.00
114.07     845.00
114.17     916.00
114.27    1067.61
114.37    1083.32
114.47    1160.00
114.57    1289.00
114.67    1447.00
114.77    1605.00
114.87    1816.00
114.97    2057.00
115.07    2111.34
115.17    2467.00
115.27    2816.00
115.37    2968.00
115.47    3420.00
115.57    3597.00
115.67    3889.85
115.77    4356.00
115.87    4850.00
115.97    5073.18
116.07    5490.00
116.17    5765.00
116.27    6212.03
116.37    6490.00
116.47    6421.00
116.57    6697.00
116.67    6899.72
116.77    6745.00
116.87    6670.00
116.97    6623.00
117.07    6297.00
117.17    6188.00
117.27    5617.00
117.37    5571.46
117.47    4965.00
117.57    4803.00
117.67    4327.00
117.77    4056.00
117.87    3706.00
117.97    3319.67
118.07    2969.00
118.17    2600.00
118.27    2344.00
118.37    2066.04
118.47    1988.26
118.57    1701.00
118.67    1556.00
118.77    1341.00
118.87    1199.09
118.97    1103.37
119.07    1021.00
119.17     898.87
119.27     912.11
119.37     802.00
119.47     748.00
119.57     701.15
119.67     658.64
119.77     665.00
119.87     673.00
119.97     615.00
120.07     655.51
120.17     577.18
120.27     631.26
120.37     561.15
120.47     588.00
120.57     559.00
120.67     603.00
120.77     547.00
120.87     599.00
120.97     571.00
121.07     565.00
121.17     597.00
121.27     560.00
121.37     605.55
121.47     560.00
121.57     575.04
121.67     578.77
121.77     578.00
121.87     574.58
121.97     565.44
122.07     588.26
122.17     580.00
122.27     648.00
122.37     686.00
122.47     589.49
122.57     689.00
122.67     678.78
122.77     672.00
122.87     653.00
122.97     634.00
123.07     614.40
123.17     601.97
123.27     694.00
123.37     661.15
123.47     612.00
123.57     628.92
123.67     590.00
123.77     632.00
123.87     617.00
123.97     654.00
124.07     655.88
124.17     675.00
124.27     585.00
124.37     603.00
124.47     603.00
124.57     651.00
124.67     581.00
124.77     589.32
124.87     559.10
124.97     604.00
