  9.97     575.00
 10.07     557.60
 10.17     592.00
 10.27     555.00
 10.37     590.00
 10.47     596.00
 10.57     595.00
 10.67     557.80
 10.77     577.00
 10.87     588.00
 10.97     597.00
 11.07     593.00
 11.17     591.40
 11.27     584.00
 11.37     579.00
 11.47     579.00
 11.57     569.00
 11.67     585.00
 11.77     647.00
 11.87     648.25
 11.97     661.58
 12.07     647.00
 12.17     683.26
 12.27     740.09
 12.37     680.28
 12.47     660.53
 12.57     646.39
 12.67     608.00
 12.77     610.00
 12.87     551.03
 12.97     554.00
 13.07     615.23
 13.17     607.41
 13.27     559.00
 13.37     580.49
 13.47     563.00
 13.57     534.00
 13.67     527.79
 13.77     525.82
 13.87     563.00
 13.97     555.77
 14.07     542.63
 14.17     579.00
 14.27     534.75
 14.37     543.81
 14.47     566.00
 14.57     589.00
 14.67     551.82
 14.77     539.00
 14.87     538.73
 14.97     558.00
 15.07     550.77
 15.17     560.00
 15.27     598.00
 15.37     545.00
 15.47     591.70
 15.57     557.53
 15.67     567.00
 15.77     558.00
 15.87     534.00
 15.97     520.10
 16.07     602.74
 16.17     589.00
 16.27     603.00
 16.37     536.53
 16.47     550.00
 16.57     573.00
 16.67     527.00
 16.77     594.41
 16.87     526.00
 16.97     598.00
 17.07     573.97
 17.17     552.00
 17.27     537.20
 17.37     574.00
 17.47     533.00
 17.57     566.41
 17.67     516.49
 17.77     531.00
 17.87     538.00
 17.97     573.00
 18.07     563.24
 18.17     527.56
 18.27     601.66
 18.37     569.00
 18.47     554.00
 18.57     568.00
 18.67     596.62
 18.77     590.00
 18.87     561.00
 18.97     552.00
 19.07     524.00
 19.17     518.00
 19.27     505.00
 19.37     585.40
 19.47     542.62
 19.57     577.61
 19.67     557.00
 19.77     557.32
 19.87     555.00
 19.97     564.64
 20.07     549.49
 20.17     578.00
 20.27     544.00
 20.37     550.00
 20.47     519.00
 20.57     517.00
 20.67     584.28
 20.77     511.00
 20.87     592.75
 20.97     537.55
 21.07     585.14
 21.17     511.01
 21.27     562.00
 21.37     524.00
 21.47     540.00
 21.57     592.62
 21.67     589.68
 21.77     521.00
 21.87     554.23
 21.97     577.00
 22.07     516.00
 22.17     592.62
 22.27     587.00
 22.37     533.00
 22.47     557.00
 22.57     586.00
 22.67     551.00
 22.77     518.47
 22.87     549.63
 22.97     501.00
 23.07     584.00
 23.17     576.00
 23.27     537.00
 23.37     558.42
 23.47     535.06
 23.57     592.10
 23.67     507.30
 23.77     550.85
 23.87     564.00
 23.97     540.00
 24.07     550.00
 24.17     513.00
 24.27     553.00
 24.37     577.00
 24.47     544.00
 24.57     586.00
 24.67     578.22
 24.77     607.00
 24.87     614.00
 24.97     592.00
 25.07     587.00
 25.17     568.00
 25.27     545.00
 25.37     538.00
 25.47     542.57
 25.57     581.00
 25.67     536.14
 25.77     572.00
 25.87     550.00
 25.97     501.48
 26.07     508.00
 26.17     565.00
 26.27     565.00
 26.37     556.00
 26.47     562.00
 26.57     539.00
 26.67     545.44
 26.77     516.44
 26.87     518.00
 26.97     523.00
 27.07     536.00
 27.17     583.00
 27.27     570.42
 27.37     599.00
 27.47     570.00
 27.57     600.00
 27.67     566.00
 27.77     592.24
 27.87     599.29
 27.97     671.00
 28.07     739.00
 28.17     917.28
 28.27     980.54
 28.37     896.00
 28.47     812.00
 28.57     750.28
 28.67     692.00
 28.77     741.18
 28.87     818.74
 28.97     864.14
 29.07     791.00
 29.17     725.65
 29.27     664.16
 29.37     599.00
 29.47     591.03
 29.57     562.00
 29.67     598.00
 29.77     603.00
 29.87     612.00
 29.97     576.00
 30.07     519.62
 30.17     591.00
 30.27     566.00
 30.37     563.00
 30.47     565.00
 30.57     574.00
 30.67     554.00
 30.77     562.38
 30.87     607.34
 30.97     590.20
 31.07     585.00
 31.17     605.00
 31.27     520.16
 31.37     507.00
 31.47     557.00
 31.57     529.00
 31.67     520.79
 31.77     553.00
 31.87     541.00
 31.97     554.00
 32.07     533.81
 32.17     499.44
 32.27     572.00
 32.37     531.70
 32.47     513.00
 32.57     509.95
 32.67     504.98
 32.77     503.00
 32.87     571.00
 32.97     530.00
 33.07     580.00
 33.17     535.00
 33.27     549.00
 33.37     517.00
 33.47     549.37
 33.57     609.00
 33.67     640.00
 33.77     671.00
 33.87     838.00
 33.97     968.65
 34.07    1049.00
 34.17    1051.00
 34.27     888.37
 34.37     764.00
 34.47     692.00
 34.57     615.00
 34.67     579.00
 34.77     528.80
 34.87     501.00
 34.97     568.00
 35.07     507.00
 35.17     513.00
 35.27     507.00
 35.37     510.00
 35.47     525.00
 35.57     511.45
 35.67     535.00
 35.77     523.07
 35.87     528.17
 35.97     505.75
 36.07     501.00
 36.17     542.25
 36.27     481.00
 36.37     505.21
 36.47     500.00
 36.57     538.48
 36.67     513.00
 36.77     549.00
 36.87     521.81
 36.97     537.05
 37.07     468.89
 37.17     528.11
 37.27     505.00
 37.37     483.95
 37.47     508.00
 37.57     538.00
 37.67     528.54
 37.77     485.00
 37.87     503.00
 37.97     549.00
 38.07     523.69
 38.17     521.00
 38.27     549.00
 38.37     534.00
 38.47     536.00
 38.57     477.97
 38.67     525.66
 38.77     477.00
 38.87     503.13
 38.97     463.37
 39.07     485.00
 39.17     518.00
 39.27     498.73
 39.37     487.72
 39.47     541.30
 39.57     510.00
 39.67     439.00
 39.77     502.00
 39.87     531.00
 39.97     499.00
 40.07     459.00
 40.17     534.16
 40.27     532.00
 40.37     534.18
 40.47     499.78
 40.57     490.00
 40.67     448.00
 40.77     488.50
 40.87     527.43
 40.97     506.00
 41.07     481.34
 41.17     525.00
 41.27     464.75
 41.37     493.00
 41.47     520.15
 41.57     528.00
 41.67     527.00
 41.77     477.00
 41.87     467.00
 41.97     505.00
 42.07     514.00
 42.17     513.00
 42.27     507.82
 42.37     560.00
 42.47     527.69
 42.57     610.91
 42.67     554.00
 42.77     596.00
 42.87     616.27
 42.97     598.70
 43.07     525.00
 43.17     576.73
 43.27     506.00
 43.37     501.00
 43.47     481.78
 43.57     524.00
 43.67     525.97
 43.77     485.48
 43.87     540.00
 43.97     511.12
 44.07     517.78
 44.17     500.24
 44.27     531.84
 44.37     463.99
 44.47     459.11
 44.57     524.75
 44.67     517.92
 44.77     469.13
 44.87     482.00
 44.97     489.97
 45.07     528.17
 45.17     448.00
 45.27     501.00
 45.37     496.00
 45.47     502.00
 45.57     493.00
 45.67     483.00
 45.77     513.00
 45.87     511.00
 45.97     497.00
 46.07     485.00
 46.17     471.00
 46.27     522.29
 46.37     477.30
 46.47     475.00
 46.57     521.89
 46.67     517.00
 46.77     483.00
 46.87     486.00
 46.97     504.00
 47.07     471.00
 47.17     490.00
 47.27     509.80
 47.37     503.00
 47.47     551.00
 47.57     542.00
 47.67     519.00
 47.77     552.00
 47.87     588.00
 47.97     545.00
 48.07     571.00
 48.17     556.00
 48.27     574.00
 48.37     526.24
 48.47     522.00
 48.57     529.00
 48.67     529.00
 48.77     547.00
 48.87     504.60
 48.97     463.00
 49.07     520.00
 49.17     571.97
 49.27     538.75
 49.37     552.00
 49.47     601.70
 49.57     649.71
 49.67     742.00
 49.77     991.00
 49.87    1313.00
 49.97    1585.00
 50.07    1971.00
 50.17    2298.00
 50.27    2468.32
 50.37    2244.64
 50.47    1984.00
 50.57    1605.00
 50.67    1261.00
 50.77     941.00
 50.87     736.68
 50.97     702.00
 51.07     600.00
 51.17     574.41
 51.27     598.20
 51.37     570.00
 51.47     556.00
 51.57     566.63
 51.67     524.00
 51.77     501.89
 51.87     566.12
 51.97     501.00
 52.07     558.00
 52.17     503.82
 52.27     515.00
 52.37     567.00
 52.47     532.39
 52.57     512.00
 52.67     575.00
 52.77     607.10
 52.87     597.39
 52.97     645.00
 53.07     736.00
 53.17     870.00
 53.27     996.00
 53.37    1027.35
 53.47    1128.00
 53.57    1250.02
 53.67    1143.00
 53.77    1111.00
 53.87     919.00
 53.97     827.00
 54.07     714.00
 54.17     696.00
 54.27     658.00
 54.37     608.17
 54.47     613.85
 54.57     592.49
 54.67     554.55
 54.77     541.00
 54.87     575.00
 54.97     574.14
 55.07     584.00
 55.17     562.09
 55.27     526.96
 55.37     508.55
 55.47     596.29
 55.57     557.00
 55.67     606.00
 55.77     597.00
 55.87     615.00
 55.97     639.23
 56.07     670.96
 56.17     798.00
 56.27     826.71
 56.37    1112.26
 56.47    1289.00
 56.57    1526.00
 56.67    1959.00
 56.77    2286.00
 56.87    2584.02
 56.97    2517.00
 57.07    2504.00
 57.17    2192.00
 57.27    1875.00
 57.37    1557.00
 57.47    1262.00
 57.57    1008.00
 57.67     906.06
 57.77     768.00
 57.87     743.32
 57.97     740.21
 58.07     676.00
 58.17     710.00
 58.27     747.36
 58.37     750.00
 58.47     864.00
 58.57     927.00
 58.67    1022.54
 58.77    1164.00
 58.87    1203.00
 58.97    1299.26
 59.07    1344.87
 59.17    1309.00
 59.27    1238.00
 59.37    1331.00
 59.47    1231.98
 59.57    1216.00
 59.67    1097.67
 59.77    1123.61
 59.87    1220.87
 59.97    1356.00
 60.07    1420.60
 60.17    1482.04
 60.27    1488.76
 60.37    1517.31
 60.47    1460.55
 60.57    1317.00
 60.67    1219.00
 60.77    1056.00
 60.87     898.00
 60.97     773.00
 61.07     728.00
 61.17     660.00
 61.27     617.18
 61.37     637.32
 61.47     707.00
 61.57     748.00
 61.67     741.00
 61.77     906.00
 61.87     983.00
 61.97    1105.00
 62.07    1283.97
 62.17    1365.00
 62.27    1415.76
 62.37    1353.00
 62.47    1229.41
 62.57    1227.00
 62.67     985.70
 62.77     865.00
 62.87     725.00
 62.97     632.00
 63.07     652.00
 63.17     573.00
 63.27     623.00
 63.37     532.00
 63.47     539.29
 63.57     554.00
 63.67     593.00
 63.77     580.00
 63.87     646.00
 63.97     637.00
 64.07     651.00
 64.17     756.63
 64.27     767.96
 64.37     851.00
 64.47     947.00
 64.57     922.00
 64.67    1035.25
 64.77    1012.00
 64.87     939.04
 64.97     969.00
 65.07     854.00
 65.17     854.22
 65.27     706.00
 65.37     700.00
 65.47     644.00
 65.57     692.39
 65.67     600.76
 65.77     585.00
 65.87     593.00
 65.97     564.10
 66.07     562.00
 66.17     549.17
 66.27     560.00
 66.37     561.77
 66.47     519.00
 66.57     538.00
 66.67     563.00
 66.77     595.92
 66.87     552.00
 66.97     595.63
 67.07     647.05
 67.17     658.00
 67.27     754.00
 67.37     817.00
 67.47     942.52
 67.57    1147.00
 67.67    1352.00
 67.77    1588.00
 67.87    1803.13
 67.97    2172.00
 68.07    2251.00
 68.17    2358.00
 68.27    2266.20
 68.37    2219.00
 68.47    2043.26
 68.57    1795.00
 68.67    1503.00
 68.77    1308.00
 68.87    1094.13
 68.97     912.00
 69.07     732.00
 69.17     778.00
 69.27     686.04
 69.37     613.73
 69.47     657.00
 69.57     584.00
 69.67     594.23
 69.77     536.80
 69.87     599.00
 69.97     578.00
 70.07     577.00
 70.17     552.00
 70.27     527.27
 70.37     575.00
 70.47     582.00
 70.57     610.00
 70.67     618.00
 70.77     567.00
 70.87     615.58
 70.97     652.00
 71.07     657.10
 71.17     672.00
 71.27     762.00
 71.37     945.06
 71.47    1049.96
 71.57    1205.57
 71.67    1316.00
 71.77    1469.21
 71.87    1624.10
 71.97    1795.00
 72.07    1823.00
 72.17    1877.00
 72.27    1867.00
 72.37    1674.16
 72.47    1509.42
 72.57    1399.00
 72.67    1227.00
 72.77    1116.09
 72.87     918.53
 72.97     841.21
 73.07     804.00
 73.17     723.00
 73.27     692.00
 73.37     639.00
 73.47     659.00
 73.57     625.00
 73.67     575.97
 73.77     559.00
 73.87     591.07
 73.97     587.00
 74.07     637.00
 74.17     613.26
 74.27     640.00
 74.37     596.68
 74.47     636.00
 74.57     545.07
 74.67     598.36
 74.77     616.00
 74.87     632.00
 74.97     672.00
 75.07     604.54
 75.17     602.00
 75.27     589.00
 75.37     599.00
 75.47     568.31
 75.57     612.00
 75.67     535.00
 75.77     571.84
 75.87     593.90
 75.97     586.91
 76.07     595.00
 76.17     674.00
 76.27     657.98
 76.37     679.00
 76.47     706.47
 76.57     709.00
 76.67     680.00
 76.77     725.00
 76.87     670.00
 76.97     676.96
 77.07     654.00
 77.17     610.00
 77.27     574.26
 77.37     593.00
 77.47     566.76
 77.57     591.13
 77.67     501.00
 77.77     509.00
 77.87     502.45
 77.97     482.00
 78.07     499.60
 78.17     545.97
 78.27     520.43
 78.37     527.14
 78.47     511.00
 78.57     527.00
 78.67     477.00
 78.77     499.00
 78.87     517.00
 78.97     527.12
 79.07     494.74
 79.17     509.00
 79.27     517.00
 79.37     495.62
 79.47     550.00
 79.57     546.69
 79.67     540.00
 79.77     485.00
 79.87     565.00
 79.97     549.03
 80.07     535.12
 80.17     530.00
 80.27     520.00
 80.37     548.00
 80.47     579.00
 80.57     589.00
 80.67     559.00
 80.77     603.00
 80.87     630.00
 80.97     695.65
 81.07     746.59
 81.17     714.71
 81.27     766.42
 81.37     700.00
 81.47     727.96
 81.57     793.00
 81.67     790.00
 81.77     764.00
 81.87     726.25
 81.97     769.00
 82.07     690.00
 82.17     673.00
 82.27     675.00
 82.37     633.00
 82.47     603.00
 82.57     569.55
 82.67     581.00
 82.77     567.84
 82.87     564.00
 82.97     562.00
 83.07     585.50
 83.17     548.25
 83.27     541.20
 83.37     531.00
 83.47     540.00
 83.57     536.00
 83.67     564.37
 83.77     534.00
 83.87     527.00
 83.97     539.00
 84.07     567.00
 84.17     557.00
 84.27     580.00
 84.37     525.00
 84.47     540.00
 84.57     515.51
 84.67     560.00
 84.77     571.00
 84.87     557.96
 84.97     500.92
 85.07     546.00
 85.17     560.00
 85.27     525.00
 85.37     534.00
 85.47     523.17
 85.57     518.00
 85.67     528.75
 85.77     545.00
 85.87     506.32
 85.97     510.00
 86.07     524.86
 86.17     484.00
 86.27     553.00
 86.37     529.40
 86.47     508.00
 86.57     515.00
 86.67     524.00
 86.77     547.00
 86.87     571.00
 86.97     602.00
 87.07     604.00
 87.17     627.00
 87.27     636.30
 87.37     600.00
 87.47     595.00
 87.57     650.00
 87.67     679.00
 87.77     601.00
 87.87     594.00
 87.97     603.02
 88.07     579.31
 88.17     571.44
 88.27     579.88
 88.37     586.00
 88.47     558.00
 88.57     550.50
 88.67     548.00
 88.77     557.00
 88.87     520.93
 88.97     551.00
 89.07     615.00
 89.17     542.00
 89.27     541.41
 89.37     555.00
 89.47     568.68
 89.57     569.00
 89.67     628.47
 89.77     553.56
 89.87     573.00
 89.97     536.00
 90.07     557.00
 90.17     572.71
 90.27     517.00
 90.37     498.00
 90.47     493.00
 90.57     512.00
 90.67     533.73
 90.77     472.00
 90.87     496.79
 90.97     525.00
 91.07     512.87
 91.17     478.00
 91.27     513.00
 91.37     495.12
 91.47     514.00
 91.57     548.00
 91.67     505.00
 91.77     512.00
 91.87     546.08
 91.97     513.00
 92.07     519.00
 92.17     551.00
 92.27     522.62
 92.37     575.58
 92.47     639.00
 92.57     617.00
 92.67     620.00
 92.77     656.00
 92.87     683.66
 92.97     674.20
 93.07     690.00
 93.17     699.00
 93.27     777.00
 93.37     726.00
 93.47     784.00
 93.57     856.00
 93.67     793.01
 93.77     758.00
 93.87     831.00
 93.97     765.14
 94.07     835.00
 94.17     835.00
 94.27     832.00
 94.37     832.00
 94.47     913.00
 94.57     876.00
 94.67     881.00
 94.77     907.00
 94.87     848.00
 94.97     886.00
 95.07     827.00
 95.17     884.00
 95.27     845.00
 95.37     882.00
 95.47     842.00
 95.57     784.00
 95.67     723.92
 95.77     741.00
 95.87     722.00
 95.97     685.00
 96.07     688.52
 96.17     748.00
 96.27     679.00
 96.37     772.00
 96.47     740.79
 96.57     825.00
 96.67     904.77
 96.77     967.00
 96.87    1037.00
 96.97    1055.00
 97.07    1167.84
 97.17    1214.92
 97.27    1269.00
 97.37    1306.50
 97.47    1405.00
 97.57    1407.00
 97.67    1441.00
 97.77    1464.00
 97.87    1342.45
 97.97    1404.00
 98.07    1305.00
 98.17    1217.95
 98.27    1174.00
 98.37    1067.50
 98.47    1101.00
 98.57     997.00
 98.67     926.00
 98.77     853.00
 98.87     840.00
 98.97     841.80
 99.07     808.00
 99.17     849.00
 99.27     872.00
 99.37     938.00
 99.47     953.00
 99.57    1032.32
 99.67    1073.00
 99.77    1145.85
 99.87    1252.00
 99.97    1383.00
100.07    1480.00
100.17    1578.00
100.27    1726.00
100.37    1697.89
100.47    1926.91
100.57    1942.00
100.67    1978.64
100.77    1988.00
100.87    1955.76
100.97    1992.00
101.07    1972.00
101.17    1998.11
101.27    1878.67
101.37    1736.77
101.47    1651.22
101.57    1646.04
101.67    1531.98
101.77    1421.00
101.87    1380.00
101.97    1450.00
102.07    1260.00
102.17    1293.00
102.27    1189.00
102.37    1163.00
102.47    1231.00
102.57    1158.00
102.67    1131.00
102.77    1080.00
102.87    1027.81
102.97    1030.00
103.07    1028.00
103.17    1003.00
103.27     936.02
103.37     889.32
103.47     791.95
103.57     790.13
103.67     795.00
103.77     723.93
103.87     676.91
103.97     612.18
104.07     622.00
104.17     651.00
104.27     637.00
104.37     562.00
104.47     544.00
104.57     549.00
104.67     566.90
104.77     542.00
104.87     512.00
104.97     555.14
105.07     481.04
105.17     537.00
105.27     542.55
105.37     513.00
105.47     588.00
105.57     538.09
105.67     519.00
105.77     549.00
105.87     542.22
105.97     498.47
106.07     556.00
106.17     577.56
106.27     586.72
106.37     621.00
106.47     583.00
106.57     616.00
106.67     588.00
106.77     598.65
106.87     650.22
106.97     627.00
107.07     653.00
107.17     657.00
107.27     637.00
107.37     634.00
107.47     652.00
107.57     661.44
107.67     674.00
107.77     704.00
107.87     665.00
107.97     678.00
108.07     711.00
108.17     653.00
108.27     693.85
108.37     663.00
108.47     672.41
108.57     660.00
108.67     692.89
108.77     740.00
108.87     648.37
108.97     716.00
109.07     677.00
109.17     645.00
109.27     730.00
109.37     681.24
109.47     713.00
109.57     685.00
109.67     602.52
109.77     603.01
109.87     606.91
109.97     600.00
110.07     632.00
110.17     598.00
110.27     578.00
110.37     594.00
110.47     575.87
110.57     584.13
110.67     554.56
110.77     578.00
110.87     544.00
110.97     531.00
111.07     551.00
111.17     578.77
111.27     564.23
111.37     564.29
111.47     562.60
111.57     569.00
111.67     533.76
111.77     548.00
111.87     570.00
111.97     535.00
112.07     512.00
112.17     559.00
112.27     518.00
112.37     561.00
112.47     548.00
112.57     549.00
112.67     576.67
112.77     645.36
112.87     625.32
112.97     640.52
113.07     591.00
113.17     620.00
113.27     629.34
113.37     638.00
113.47     640.72
113.57     658.00
113.67     688.00
113.77     758.45
113.87     725.00
113.97     790.00
114.07     753.00
114.17     884.89
114.27     921.04
114.37    1002.03
114.47    1065.53
114.57    1068.92
114.67    1174.08
114.77    1376.86
114.87    1560.34
114.97    1753.00
115.07    1838.88
115.17    2145.00
115.27    2528.00
115.37    2657.18
115.47    2847.00
115.57    3225.00
115.67    3637.00
115.77    3867.00
115.87    4455.44
115.97    4659.00
116.07    4988.00
116.17    5540.43
116.27    5544.00
116.37    6168.00
116.47    6539.00
116.57    6475.00
116.67    6675.73
116.77    6718.11
116.87    6802.00
116.97    6798.00
117.07    6689.00
117.17    6410.00
117.27    6225.00
117.37    5825.00
117.47    5391.00
117.57    5196.00
117.67    4752.00
117.77    4436.89
117.87    4245.00
117.97    3773.50
118.07    3390.05
118.17    3278.00
118.27    2739.25
118.37    2602.00
118.47    2207.00
118.57    2019.31
118.67    1880.00
118.77    1596.60
118.87    1457.00
118.97    1301.00
119.07    1154.61
119.17    1059.60
119.27    1014.33
119.37     912.00
119.47     869.00
119.57     776.20
119.67     759.42
119.77     768.00
119.87     744.00
119.97     689.00
120.07     688.62
120.17     666.57
120.27     609.64
120.37     625.21
120.47     583.00
120.57     608.00
120.67     553.00
120.77     581.00
120.87     605.00
120.97     594.44
121.07     547.00
121.17     611.00
121.27     565.00
121.37     616.00
121.47     595.17
121.57     588.00
121.67     549.66
121.77     611.31
121.87     550.00
121.97     586.00
122.07     641.49
122.17     580.41
122.27     617.00
122.37     593.25
122.47     590.83
122.57     624.00
122.67     640.13
122.77     585.00
122.87     691.00
122.97     668.89
123.07     681.92
123.17     640.00
123.27     654.00
123.37     663.98
123.47     622.00
123.57     582.00
123.67     663.00
123.77     631.00
123.87     660.00
123.97     640.00
124.07     636.27
124.17     626.22
124.27     573.00
124.37     584.00
124.47     628.00
124.57     642.00
124.67     632.00
124.77     619.00
124.87     582.00
124.97     553.00
