  9.97     601.00
 10.07     579.00
 10.17     549.00
 10.27     609.00
 10.37     632.00
 10.47     596.00
 10.57     574.00
 10.67     603.23
 10.77     527.00
 10.87     539.00
 10.97     589.00
 11.07     619.29
 11.17     553.00
 11.27     645.00
 11.37     564.00
 11.47     559.26
 11.57     611.00
 11.67     603.93
 11.77     598.00
 11.87     685.00
 11.97     657.28
 12.07     641.84
 12.17     709.26
 12.27     702.00
 12.37     701.08
 12.47     677.00
 12.57     566.71
 12.67     568.00
 12.77     624.26
 12.87     595.00
 12.97     592.45
 13.07     593.00
 13.17     604.45
 13.27     528.00
 13.37     569.00
 13.47     536.00
 13.57     605.41
 13.67     560.00
 13.77     574.00
 13.87     585.00
 13.97     555.00
 14.07     571.00
 14.17     554.37
 14.27     579.00
 14.37     509.00
 14.47     590.00
 14.57     522.21
 14.67     541.00
 14.77     529.00
 14.87     583.00
 14.97     589.00
 15.07     546.00
 15.17     570.00
 15.27     576.00
 15.37     557.00
 15.47     561.00
 15.57     568.00
 15.67     581.07
 15.77     585.00
 15.87     553.00
 15.97     538.00
 16.07     563.83
 16.17     587.00
 16.27     557.00
 16.37     609.43
 16.47     537.00
 16.57     573.64
 16.67     563.00
 16.77     570.00
 16.87     508.00
 16.97     540.00
 17.07     546.42
 17.17     520.54
 17.27     542.00
 17.37     591.00
 17.47     559.00
 17.57     561.17
 17.67     555.00
 17.77     567.01
 17.87     572.00
 17.97     515.78
 18.07     511.00
 18.17     577.89
 18.27     587.00
 18.37     551.63
 18.47     548.00
 18.57     572.00
 18.67     547.00
 18.77     553.00
 18.87     533.00
 18.97     602.22
 19.07     576.00
 19.17     552.00
 19.27     537.00
 19.37     537.04
 19.47     532.00
 19.57     563.16
 19.67     607.00
 19.77     574.00
 19.87     577.50
 19.97     535.08
 20.07     602.00
 20.17     554.00
 20.27     530.00
 20.37     528.04
 20.47     563.00
 20.57     549.00
 20.67     516.07
 20.77     579.35
 20.87     570.78
 20.97     573.00
 21.07     523.00
 21.17     543.00
 21.27     542.00
 21.37     516.00
 21.47     523.08
 21.57     598.03
 21.67     523.59
 21.77     570.00
 21.87     540.00
 21.97     536.63
 22.07     578.00
 22.17     555.00
 22.27     540.00
 22.37     535.00
 22.47     545.00
 22.57     542.69
 22.67     565.46
 22.77     557.00
 22.87     585.29
 22.97     579.00
 23.07     581.00
 23.17     564.00
 23.27     543.00
 23.37     531.50
 23.47     508.86
 23.57     527.00
 23.67     542.00
 23.77     567.00
 23.87     526.06
 23.97     527.67
 24.07     545.00
 24.17     554.00
 24.27     517.10
 24.37     565.00
 24.47     583.25
 24.57     614.43
 24.67     614.27
 24.77     659.00
 24.87     623.00
 24.97     623.00
 25.07     570.00
 25.17     549.83
 25.27     548.00
 25.37     591.00
 25.47     568.00
 25.57     526.16
 25.67     528.20
 25.77     532.00
 25.87     554.00
 25.97     546.37
 26.07     553.73
 26.17     584.00
 26.27     493.00
 26.37     566.00
 26.47     574.00
 26.57     528.00
 26.67     558.21
 26.77     522.40
 26.87     532.00
 26.97     521.70
 27.07     541.23
 27.17     564.00
 27.27     505.32
 27.37     581.00
 27.47     508.41
 27.57     560.00
 27.67     522.33
 27.77     606.00
 27.87     579.00
 27.97     671.00
 28.07     789.07
 28.17     932.00
 28.27     989.00
 28.37     967.95
 28.47     757.52
 28.57     735.00
 28.67     708.00
 28.77     783.00
 28.87     770.00
 28.97     805.00
 29.07     777.00
 29.17     709.88
 29.27     620.00
 29.37     598.00
 29.47     567.38
 29.57     588.00
 29.67     551.00
 29.77     540.00
 29.87     593.00
 29.97     521.94
 30.07     523.00
 30.17     549.00
 30.27     524.15
 30.37     553.00
 30.47     562.00
 30.57     562.00
 30.67     570.90
 30.77     590.00
 30.87     644.00
 30.97     558.00
 31.07     586.72
 31.17     595.00
 31.27     544.33
 31.37     525.00
 31.47     554.00
 31.57     525.00
 31.67     535.99
 31.77     545.42
 31.87     502.00
 31.97     578.00
 32.07     519.41
 32.17     524.00
 32.27     555.48
 32.37     574.00
 32.47     489.42
 32.57     525.00
 32.67     554.14
 32.77     560.11
 32.87     559.00
 32.97     546.00
 33.07     567.38
 33.17     569.00
 33.27     579.00
 33.37     539.00
 33.47     588.87
 33.57     551.30
 33.67     622.32
 33.77     723.33
 33.87     961.00
 33.97    1057.00
 34.07    1036.67
 34.17     948.00
 34.27     849.00
 34.37     747.00
 34.47     648.25
 34.57     569.00
 34.67     575.40
 34.77     550.00
 34.87     584.00
 34.97     536.00
 35.07     539.00
 35.17     522.00
 35.27     570.00
 35.37     498.00
 35.47     513.00
 35.57     563.75
 35.67     559.82
 35.77     476.00
 35.87     575.00
 35.97     494.00
 36.07     505.42
 36.17     563.47
 36.27     523.00
 36.37     507.00
 36.47     511.00
 36.57     552.00
 36.67     494.11
 36.77     516.51
 36.87     481.00
 36.97     523.30
 37.07     550.88
 37.17     488.00
 37.27     516.00
 37.37     558.65
 37.47     549.50
 37.57     536.89
 37.67     531.00
 37.77     541.19
 37.87     532.00
 37.97     518.04
 38.07     515.00
 38.17     500.00
 38.27     518.00
 38.37     495.72
 38.47     533.00
 38.57     488.17
 38.67     476.18
 38.77     478.79
 38.87     485.43
 38.97     508.00
 39.07     502.00
 39.17     480.00
 39.27     535.75
 39.37     531.65
 39.47     503.00
 39.57     506.00
 39.67     504.00
 39.77     554.00
 39.87     546.96
 39.97     470.00
 40.07     498.00
 40.17     494.00
 40.27     513.00
 40.37     470.00
 40.47     488.00
 40.57     477.00
 40.67     515.00
 40.77     541.52
 40.87     511.50
 40.97     502.00
 41.07     491.00
 41.17     543.88
 41.27     505.00
 41.37     458.00
 41.47     468.23
 41.57     480.94
 41.67     501.00
 41.77     553.63
 41.87     507.80
 41.97     523.82
 42.07     532.00
 42.17     576.00
 42.27     533.00
 42.37     539.23
 42.47     581.00
 42.57     587.00
 42.67     618.00
 42.77     597.00
 42.87     540.00
 42.97     514.00
 43.07     558.00
 43.17     509.25
 43.27     488.00
 43.37     489.00
 43.47     474.00
 43.57     507.27
 43.67     503.00
 43.77     506.07
 43.87     509.39
 43.97     490.00
 44.07     487.16
 44.17     512.00
 44.27     519.60
 44.37     519.00
 44.47     482.00
 44.57     545.00
 44.67     513.00
 44.77     468.04
 44.87     509.00
 44.97     537.15
 45.07     548.91
 45.17     531.00
 45.27     496.96
 45.37     531.00
 45.47     501.17
 45.57     544.00
 45.67     503.00
 45.77     529.60
 45.87     523.83
 45.97     524.00
 46.07     525.00
 46.17     469.05
 46.27     518.82
 46.37     533.84
 46.47     487.00
 46.57     515.00
 46.67     524.00
 46.77     509.00
 46.87     531.00
 46.97     536.00
 47.07     540.71
 47.17     548.00
 47.27     540.00
 47.37     522.00
 47.47     568.00
 47.57     554.69
 47.67     623.00
 47.77     618.00
 47.87     597.21
 47.97     571.96
 48.07     594.00
 48.17     609.87
 48.27     578.57
 48.37     504.00
 48.47     557.00
 48.57     494.98
 48.67     539.00
 48.77     558.03
 48.87     584.11
 48.97     548.00
 49.07     590.00
 49.17     537.00
 49.27     578.00
 49.37     609.00
 49.47     661.17
 49.57     779.45
 49.67     942.00
 49.77    1052.17
 49.87    1484.51
 49.97    1898.00
 50.07    2232.00
 50.17    2492.00
 50.27    2323.00
 50.37    2186.00
 50.47    1888.23
 50.57    1319.00
 50.67    1125.46
 50.77     838.75
 50.87     699.00
 50.97     618.83
 51.07     587.92
 51.17     600.66
 51.27     569.00
 51.37     614.49
 51.47     521.56
 51.57     557.00
 51.67     526.71
 51.77     539.80
 51.87     580.00
 51.97     495.42
 52.07     544.65
 52.17     521.00
 52.27     558.00
 52.37     558.00
 52.47     579.00
 52.57     595.00
 52.67     575.00
 52.77     611.00
 52.87     592.60
 52.97     724.00
 53.07     833.42
 53.17     943.00
 53.27    1064.00
 53.37    1175.25
 53.47    1192.00
 53.57    1177.00
 53.67    1086.00
 53.77     989.52
 53.87     937.00
 53.97     723.00
 54.07     680.00
 54.17     625.00
 54.27     601.74
 54.37     547.44
 54.47     586.00
 54.57     543.64
 54.67     533.39
 54.77     542.89
 54.87     578.00
 54.97     554.00
 55.07     536.38
 55.17     602.00
 55.27     577.00
 55.37     586.06
 55.47     556.00
 55.57     577.00
 55.67     570.00
 55.77     626.38
 55.87     601.20
 55.97     598.97
 56.07     708.64
 56.17     735.00
 56.27     922.49
 56.37    1209.09
 56.47    1550.00
 56.57    1779.00
 56.67    2170.62
 56.77    2399.85
 56.87    2633.00
 56.97    2497.95
 57.07    2245.00
 57.17    2093.00
 57.27    1652.00
 57.37    1286.00
 57.47    1021.00
 57.57     832.00
 57.67     722.38
 57.77     667.74
 57.87     695.00
 57.97     647.61
 58.07     732.82
 58.17     696.00
 58.27     770.00
 58.37     831.00
 58.47     984.86
 58.57     973.00
 58.67    1104.16
 58.77    1305.16
 58.87    1357.00
 58.97    1409.00
 59.07    1404.73
 59.17    1406.00
 59.27    1408.00
 59.37    1348.00
 59.47    1195.39
 59.57    1157.00
 59.67    1200.00
 59.77    1147.00
 59.87    1205.00
 59.97    1261.60
 60.07    1437.00
 60.17    1548.00
 60.27    1465.57
 60.37    1495.13
 60.47    1379.51
 60.57    1193.88
 60.67    1145.00
 60.77     977.31
 60.87     767.15
 60.97     705.00
 61.07     659.00
 61.17     683.29
 61.27     660.00
 61.37     721.00
 61.47     736.00
 61.57     739.00
 61.67     900.55
 61.77     982.00
 61.87    1073.00
 61.97    1284.00
 62.07    1329.64
 62.17    1334.00
 62.27    1326.00
 62.37    1246.00
 62.47    1153.21
 62.57    1011.01
 62.67     923.00
 62.77     810.77
 62.87     711.00
 62.97     650.00
 63.07     635.61
 63.17     617.00
 63.27     541.75
 63.37     606.03
 63.47     581.00
 63.57     567.67
 63.67     548.62
 63.77     612.00
 63.87     657.00
 63.97     693.00
 64.07     734.00
 64.17     781.92
 64.27     834.52
 64.37     841.88
 64.47     989.78
 64.57     982.00
 64.67    1001.00
 64.77    1058.00
 64.87    1014.00
 64.97     941.55
 65.07     835.00
 65.17     829.00
 65.27     697.42
 65.37     673.00
 65.47     709.92
 65.57     606.00
 65.67     565.00
 65.77     616.00
 65.87     604.00
 65.97     544.00
 66.07     616.74
 66.17     540.62
 66.27     518.47
 66.37     564.00
 66.47     598.47
 66.57     558.00
 66.67     554.00
 66.77     572.00
 66.87     557.06
 66.97     601.71
 67.07     679.00
 67.17     685.00
 67.27     776.50
 67.37     923.00
 67.47    1059.24
 67.57    1299.07
 67.67    1576.00
 67.77    1809.00
 67.87    2025.06
 67.97    2324.00
 68.07    2388.00
 68.17    2472.57
 68.27    2283.00
 68.37    2036.00
 68.47    1849.16
 68.57    1487.00
 68.67    1245.00
 68.77    1038.07
 68.87     914.00
 68.97     737.92
 69.07     706.23
 69.17     693.00
 69.27     663.00
 69.37     635.00
 69.47     619.00
 69.57     588.00
 69.67     620.31
 69.77     582.95
 69.87     587.34
 69.97     559.46
 70.07     569.00
 70.17     549.25
 70.27     567.00
 70.37     545.38
 70.47     526.88
 70.57     570.00
 70.67     547.00
 70.77     641.54
 70.87     574.85
 70.97     638.00
 71.07     706.00
 71.17     737.00
 71.27     859.16
 71.37     943.00
 71.47    1084.00
 71.57    1221.00
 71.67    1458.55
 71.77    1631.00
 71.87    1859.00
 71.97    1871.00
 72.07    1925.00
 72.17    1823.00
 72.27    1744.00
 72.37    1598.00
 72.47    1408.32
 72.57    1266.80
 72.67    1063.00
 72.77     965.90
 72.87     956.13
 72.97     860.35
 73.07     751.63
 73.17     752.77
 73.27     694.00
 73.37     696.28
 73.47     581.00
 73.57     570.00
 73.67     612.00
 73.77     593.00
 73.87     600.81
 73.97     549.76
 74.07     563.00
 74.17     582.29
 74.27     570.57
 74.37     524.55
 74.47     580.74
 74.57     601.00
 74.67     558.95
 74.77     525.93
 74.87     635.00
 74.97     629.00
 75.07     617.00
 75.17     592.00
 75.27     574.00
 75.37     566.00
 75.47     601.49
 75.57     582.00
 75.67     577.00
 75.77     567.00
 75.87     608.00
 75.97     659.10
 76.07     633.00
 76.17     662.00
 76.27     683.00
 76.37     724.00
 76.47     724.51
 76.57     757.33
 76.67     711.00
 76.77     684.00
 76.87     705.05
 76.97     628.00
 77.07     609.00
 77.17     565.19
 77.27     531.00
 77.37     541.00
 77.47     534.00
 77.57     557.00
 77.67     575.95
 77.77     468.00
 77.87     534.00
 77.97     494.37
 78.07     526.00
 78.17     520.00
 78.27     502.00
 78.37     503.18
 78.47     527.06
 78.57     507.00
 78.67     570.37
 78.77     561.97
 78.87     489.00
 78.97     529.00
 79.07     502.92
 79.17     504.00
 79.27     510.00
 79.37     510.00
 79.47     494.00
 79.57     504.00
 79.67     552.00
 79.77     561.00
 79.87     532.00
 79.97     590.40
 80.07     540.94
 80.17     568.00
 80.27     563.16
 80.37     582.00
 80.47     573.00
 80.57     571.00
 80.67     623.00
 80.77     629.00
 80.87     693.73
 80.97     654.01
 81.07     747.05
 81.17     721.00
 81.27     717.05
 81.37     763.00
 81.47     726.00
 81.57     762.59
 81.67     707.91
 81.77     737.00
 81.87     703.00
 81.97     675.00
 82.07     691.40
 82.17     675.00
 82.27     642.00
 82.37     590.96
 82.47     638.00
 82.57     605.41
 82.67     556.29
 82.77     631.00
 82.87     565.00
 82.97     546.39
 83.07     538.00
 83.17     583.00
 83.27     567.00
 83.37     511.56
 83.47     522.00
 83.57     540.00
 83.67     544.00
 83.77     545.00
 83.87     589.48
 83.97     564.00
 84.07     547.00
 84.17     582.18
 84.27     590.50
 84.37     515.00
 84.47     517.15
 84.57     542.00
 84.67     541.00
 84.77     559.00
 84.87     516.00
 84.97     491.28
 85.07     572.80
 85.17     499.00
 85.27     505.35
 85.37     534.00
 85.47     537.29
 85.57     535.00
 85.67     480.01
 85.77     492.90
 85.87     541.00
 85.97     538.00
 86.07     506.38
 86.17     538.00
 86.27     527.00
 86.37     561.00
 86.47     532.00
 86.57     596.00
 86.67     603.08
 86.77     591.59
 86.87     602.00
 86.97     617.00
 87.07     642.00
 87.17     628.00
 87.27     650.24
 87.37     602.54
 87.47     646.00
 87.57     611.23
 87.67     667.50
 87.77     614.24
 87.87     573.08
 87.97     555.62
 88.07     614.00
 88.17     616.79
 88.27     542.72
 88.37     579.05
 88.47     591.00
 88.57     626.00
 88.67     576.00
 88.77     556.48
 88.87     602.00
 88.97     584.72
 89.07     613.00
 89.17     615.00
 89.27     601.00
 89.37     560.52
 89.47     580.00
 89.57     580.92
 89.67     574.00
 89.77     554.00
 89.87     561.00
 89.97     519.00
 90.07     559.00
 90.17     558.00
 90.27     522.00
 90.37     497.89
 90.47     556.64
 90.57     517.00
 90.67     512.17
 90.77     513.95
 90.87     533.00
 90.97     557.47
 91.07     554.00
 91.17     567.26
 91.27     516.00
 91.37     523.00
 91.47     551.51
 91.57     540.00
 91.67     546.99
 91.77     563.00
 91.87     547.00
 91.97     555.00
 92.07     607.67
 92.17     549.00
 92.27     573.41
 92.37     636.00
 92.47     594.00
 92.57     590.06
 92.67     664.31
 92.77     718.00
 92.87     720.00
 92.97     737.00
 93.07     734.69
 93.17     756.00
 93.27     797.00
 93.37     713.00
 93.47     807.00
 93.57     828.91
 93.67     759.01
 93.77     818.00
 93.87     898.00
 93.97     828.00
 94.07     851.09
 94.17     811.00
 94.27     872.00
 94.37     898.00
 94.47     895.00
 94.57     888.00
 94.67     864.45
 94.77     890.00
 94.87     878.94
 94.97     928.00
 95.07     808.10
 95.17     855.66
 95.27     856.00
 95.37     828.00
 95.47     799.50
 95.57     786.00
 95.67     702.00
 95.77     698.00
 95.87     696.00
 95.97     688.00
 96.07     711.16
 96.17     702.00
 96.27     732.08
 96.37     768.00
 96.47     780.00
 96.57     851.00
 96.67     960.00
 96.77    1005.00
 96.87    1127.00
 96.97    1146.00
 97.07    1222.00
 97.17    1310.00
 97.27    1405.00
 97.37    1396.72
 97.47    1416.00
 97.57    1393.61
 97.67    1357.32
 97.77    1399.59
 97.87    1411.67
 97.97    1280.00
 98.07    1245.00
 98.17    1081.00
 98.27    1072.00
 98.37     963.78
 98.47     922.00
 98.57     876.18
 98.67     927.61
 98.77     845.00
 98.87     792.00
 98.97     859.00
 99.07     844.25
 99.17     875.00
 99.27     943.00
 99.37     963.00
 99.47    1051.00
 99.57    1108.00
 99.67    1223.00
 99.77    1314.34
 99.87    1419.00
 99.97    1476.43
100.07    1624.00
100.17    1760.00
100.27    1739.51
100.37    1921.00
100.47    1932.73
100.57    2094.00
100.67    2074.00
100.77    2092.59
100.87    2055.00
100.97    2032.00
101.07    1910.90
101.17    1723.00
101.27    1703.43
101.37    1558.00
101.47    1603.00
101.57    1529.00
101.67    1426.00
101.77    1290.00
101.87    1268.00
101.97    1196.00
102.07    1196.26
102.17    1215.79
102.27    1083.64
102.37    1091.78
102.47    1134.00
102.57    1087.00
102.67    1025.00
102.77     978.99
102.87    1048.88
102.97    1029.20
103.07     909.00
103.17     899.00
103.27     804.00
103.37     801.00
103.47     806.63
103.57     733.00
103.67     728.49
103.77     672.00
103.87     643.00
103.97     636.00
104.07     562.00
104.17     552.00
104.27     560.00
104.37     570.00
104.47     556.00
104.57     580.00
104.67     577.69
104.77     585.00
104.87     547.00
104.97     544.00
105.07     557.00
105.17     508.66
105.27     551.00
105.37     538.00
105.47     554.02
105.57     516.08
105.67     559.00
105.77     510.37
105.87     561.88
105.97     611.00
106.07     591.00
106.17     580.00
106.27     621.00
106.37     572.01
106.47     615.00
106.57     631.06
106.67     643.00
106.77     676.00
106.87     688.33
106.97     645.00
107.07     739.55
107.17     654.00
107.27     665.00
107.37     710.42
107.47     730.53
107.57     685.00
107.67     687.00
107.77     682.00
107.87     697.00
107.97     734.98
108.07     688.00
108.17     647.00
108.27     720.83
108.37     705.00
108.47     688.37
108.57     688.00
108.67     667.00
108.77     664.00
108.87     697.00
108.97     665.00
109.07     674.00
109.17     636.63
109.27     643.49
109.37     611.60
109.47     688.69
109.57     632.00
109.67     569.00
109.77     647.05
109.87     601.00
109.97     610.00
110.07     623.00
110.17     573.00
110.27     581.00
110.37     609.00
110.47     557.48
110.57     546.54
110.67     555.00
110.77     568.00
110.87     569.00
110.97     542.00
111.07     572.35
111.17     549.00
111.27     519.23
111.37     589.00
111.47     542.00
111.57     539.00
111.67     552.00
111.77     552.00
111.87     539.00
111.97     596.00
112.07     557.20
112.17     558.61
112.27     521.00
112.37     542.99
112.47     590.68
112.57     617.12
112.67     619.21
112.77     593.00
112.87     627.00
112.97     620.00
113.07     699.72
113.17     642.00
113.27     673.00
113.37     690.00
113.47     735.00
113.57     700.00
113.67     830.29
113.77     751.00
113.87     814.00
113.97     837.00
114.07     984.54
114.17     983.00
114.27    1044.00
114.37    1127.00
114.47    1254.00
114.57    1354.00
114.67    1514.00
114.77    1750.00
114.87    1889.00
114.97    2135.00
115.07    2357.00
115.17    2571.19
115.27    2865.00
115.37    3108.00
115.47    3490.00
115.57    3837.91
115.67    4238.00
115.77    4574.00
115.87    4954.00
115.97    5289.00
116.07    5613.31
116.17    5882.18
116.27    6371.65
116.37    6616.00
116.47    6780.00
116.57    6802.00
116.67    6927.00
116.77    6662.15
116.87    6707.02
116.97    6407.00
117.07    6301.89
117.17    5921.00
117.27    5586.00
117.37    5086.00
117.47    5093.19
117.57    4511.00
117.67    4152.00
117.77    3722.00
117.87    3350.00
117.97    3169.00
118.07    2820.00
118.17    2446.00
118.27    2274.00
118.37    2055.21
118.47    1792.00
118.57    1628.62
118.67    1422.00
118.77    1242.00
118.87    1139.65
118.97    1085.00
119.07     972.00
119.17     969.66
119.27     821.00
119.37     761.29
119.47     723.00
119.57     767.00
119.67     737.48
119.77     690.00
119.87     612.00
119.97     589.43
120.07     576.00
120.17     597.00
120.27     580.00
120.37     589.00
120.47     584.00
120.57     592.36
120.67     584.00
120.77     593.12
120.87     600.00
120.97     611.00
121.07     543.00
121.17     609.00
121.27     522.00
121.37     593.00
121.47     559.00
121.57     606.00
121.67     623.00
121.77     615.00
121.87     628.00
121.97     647.00
122.07     625.24
122.17     625.00
122.27     661.00
122.37     584.16
122.47     590.89
122.57     597.93
122.67     626.35
122.77     609.43
122.87     593.57
122.97     622.06
123.07     674.00
123.17     646.00
123.27     633.19
123.37     682.00
123.47     655.00
123.57     591.61
123.67     649.00
123.77     671.90
123.87     626.00
123.97     581.00
124.07     637.00
124.17     635.83
124.27     582.00
124.37     614.48
124.47     617.00
124.57     624.00
124.67     613.00
124.77     573.00
124.87     596.00
124.97     528.00
