  9.97     603.00
 10.07     551.81
 10.17     601.00
 10.27     563.00
 10.37     562.44
 10.47     523.06
 10.57     633.00
 10.67     590.00
 10.77     556.00
 10.87     588.00
 10.97     567.42
 11.07     577.46
 11.17     583.00
 11.27     613.00
 11.37     607.56
 11.47     592.00
 11.57     604.21
 11.67     573.91
 11.77     585.10
 11.87     552.83
 11.97     626.52
 12.07     729.00
 12.17     702.00
 12.27     723.82
 12.37     643.00
 12.47     635.00
 12.57     585.00
 12.67     615.44
 12.77     556.00
 12.87     572.00
 12.97     571.95
 13.07     579.00
 13.17     529.00
 13.27     544.00
 13.37     544.23
 13.47     540.00
 13.57     570.00
 13.67     613.57
 13.77     573.00
 13.87     587.16
 13.97     602.15
 14.07     570.00
 14.17     535.00
 14.27     568.00
 14.37     594.87
 14.47     541.00
 14.57     535.00
 14.67     568.42
 14.77     525.13
 14.87     548.00
 14.97     524.40
 15.07     594.22
 15.17     496.00
 15.27     586.05
 15.37     555.00
 15.47     538.82
 15.57     560.00
 15.67     550.95
 15.77     580.84
 15.87     600.01
 15.97     508.00
 16.07     568.00
 16.17     595.04
 16.27     558.84
 16.37     575.00
 16.47     554.00
 16.57     555.00
 16.67     561.00
 16.77     554.00
 16.87     582.00
 16.97     586.01
 17.07     560.00
 17.17     561.00
 17.27     521.89
 17.37     581.00
 17.47     564.00
 17.57     567.00
 17.67     542.00
 17.77     553.00
 17.87     577.31
 17.97     532.00
 18.07     558.00
 18.17     560.00
 18.27     550.00
 18.37     543.00
 18.47     516.00
 18.57     553.12
 18.67     558.00
 18.77     564.00
 18.87     528.31
 18.97     554.40
 19.07     595.00
 19.17     562.00
 19.27     583.00
 19.37     530.00
 19.47     542.00
 19.57     546.00
 19.67     570.00
 19.77     575.00
 19.87     541.00
 19.97     534.00
 20.07     545.66
 20.17     537.00
 20.27     548.00
 20.37     525.17
 20.47     556.00
 20.57     534.00
 20.67     581.25
 20.77     502.00
 20.87     524.00
 20.97     549.00
 21.07     527.00
 21.17     551.00
 21.27     535.00
 21.37     576.00
 21.47     516.82
 21.57     521.00
 21.67     564.45
 21.77     550.66
 21.87     561.00
 21.97     547.00
 22.07     531.00
 22.17     550.00
 22.27     545.00
 22.37     566.91
 22.47     582.00
 22.57     550.00
 22.67     560.00
 22.77     553.00
 22.87     494.00
 22.97     587.15
 23.07     530.11
 23.17     562.00
 23.27     532.00
 23.37     540.00
 23.47     548.00
 23.57     554.00
 23.67     519.30
 23.77     559.18
 23.87     526.02
 23.97     532.11
 24.07     576.00
 24.17     595.00
 24.27     596.86
 24.37     588.00
 24.47     605.00
 24.57     599.50
 24.67     623.00
 24.77     655.00
 24.87     629.00
 24.97     645.00
 25.07     574.00
 25.17     625.00
 25.27     587.00
 25.37     526.85
 25.47     583.40
 25.57     563.73
 25.67     523.07
 25.77     562.12
 25.87     588.00
 25.97     533.00
 26.07     568.15
 26.17     553.00
 26.27     546.00
 26.37     587.64
 26.47     542.00
 26.57     547.00
 26.67     543.00
 26.77     599.00
 26.87     545.62
 26.97     565.00
 27.07     506.12
 27.17     537.29
 27.27     588.34
 27.37     574.00
 27.47     560.00
 27.57     555.00
 27.67     592.00
 27.77     560.00
 27.87     588.00
 27.97     631.00
 28.07     762.00
 28.17     823.01
 28.27     976.00
 28.37     974.00
 28.47     867.00
 28.57     727.00
 28.67     728.77
 28.77     678.05
 28.87     792.00
 28.97     833.00
 29.07     807.87
 29.17     723.00
 29.27     660.00
 29.37     611.00
 29.47     544.49
 29.57     612.00
 29.67     619.00
 29.77     601.00
 29.87     527.91
 29.97     599.28
 30.07     576.00
 30.17     566.00
 30.27     578.00
 30.37     576.25
 30.47     526.61
 30.57     547.00
 30.67     535.16
 30.77     559.00
 30.87     574.00
 30.97     614.85
 31.07     590.96
 31.17     585.00
 31.27     576.51
 31.37     562.96
 31.47     600.00
 31.57     525.00
 31.67     537.87
 31.77     574.00
 31.87     545.00
 31.97     542.00
 32.07     533.00
 32.17     539.00
 32.27     531.00
 32.37     513.00
 32.47     554.00
 32.57     560.98
 32.67     536.00
 32.77     541.00
 32.87     507.00
 32.97     535.32
 33.07     500.97
 33.17     544.71
 33.27     528.00
 33.37     528.00
 33.47     565.00
 33.57     568.00
 33.67     646.38
 33.77     720.00
 33.87     809.40
 33.97    1048.00
 34.07    1084.00
 34.17    1018.10
 34.27     986.80
 34.37     819.43
 34.47     718.00
 34.57     639.00
 34.67     613.00
 34.77     549.00
 34.87     535.58
 34.97     560.00
 35.07     500.00
 35.17     515.00
 35.27     514.00
 35.37     499.09
 35.47     518.00
 35.57     561.20
 35.67     509.00
 35.77     514.00
 35.87     556.39
 35.97     498.00
 36.07     536.00
 36.17     499.00
 36.27     538.00
 36.37     545.96
 36.47     517.00
 36.57     476.47
 36.67     507.78
 36.77     492.00
 36.87     504.42
 36.97     523.62
 37.07     545.67
 37.17     553.41
 37.27     486.00
 37.37     506.00
 37.47     527.00
 37.57     527.00
 37.67     501.00
 37.77     513.00
 37.87     512.00
 37.97     481.37
 38.07     438.00
 38.17     496.94
 38.27     513.99
 38.37     478.00
 38.47     508.00
 38.57     541.00
 38.67     550.39
 38.77     525.00
 38.87     468.81
 38.97     483.00
 39.07     524.00
 39.17     493.00
 39.27     546.58
 39.37     465.00
 39.47     511.00
 39.57     484.00
 39.67     540.59
 39.77     513.00
 39.87     502.00
 39.97     474.00
 40.07     471.00
 40.17     460.00
 40.27     500.00
 40.37     471.00
 40.47     490.00
 40.57     533.00
 40.67     516.00
 40.77     479.00
 40.87     514.00
 40.97     485.00
 41.07     495.00
 41.17     542.86
 41.27     542.53
 41.37     521.00
 41.47     500.23
 41.57     490.00
 41.67     536.00
 41.77     466.07
 41.87     494.01
 41.97     489.32
 42.07     495.00
 42.17     511.00
 42.27     521.00
 42.37     528.40
 42.47     589.00
 42.57     559.00
 42.67     597.00
 42.77     638.70
 42.87     609.78
 42.97     559.00
 43.07     522.00
 43.17     496.34
 43.27     563.00
 43.37     487.50
 43.47     484.00
 43.57     483.88
 43.67     499.00
 43.77     490.00
 43.87     525.00
 43.97     495.00
 44.07     480.00
 44.17     575.00
 44.27     502.00
 44.37     505.00
 44.47     502.00
 44.57     463.00
 44.67     501.16
 44.77     491.00
 44.87     499.90
 44.97     503.18
 45.07     506.00
 45.17     485.86
 45.27     519.00
 45.37     474.70
 45.47     506.00
 45.57     482.81
 45.67     553.00
 45.77     476.32
 45.87     492.68
 45.97     503.00
 46.07     467.36
 46.17     471.00
 46.27     490.00
 46.37     525.00
 46.47     490.00
 46.57     508.00
 46.67     511.96
 46.77     482.90
 46.87     490.00
 46.97     473.87
 47.07     500.46
 47.17     492.78
 47.27     493.00
 47.37     579.00
 47.47     546.00
 47.57     541.00
 47.67     557.00
 47.77     578.00
 47.87     557.00
 47.97     606.76
 48.07     595.00
 48.17     544.00
 48.27     535.00
 48.37     559.00
 48.47     552.00
 48.57     469.00
 48.67     562.00
 48.77     504.00
 48.87     492.00
 48.97     531.00
 49.07     593.00
 49.17     602.00
 49.27     565.00
 49.37     594.89
 49.47     656.43
 49.57     740.00
 49.67     818.44
 49.77     999.00
 49.87    1293.02
 49.97    1599.73
 50.07    2046.00
 50.17    2381.00
 50.27    2526.71
 50.37    2448.00
 50.47    2108.00
 50.57    1730.93
 50.67    1339.41
 50.77     893.00
 50.87     726.00
 50.97     641.24
 51.07     606.00
 51.17     625.00
 51.27     599.30
 51.37     622.62
 51.47     635.00
 51.57     542.00
 51.67     503.00
 51.77     515.75
 51.87     545.00
 51.97     562.00
 52.07     545.00
 52.17     498.42
 52.27     514.00
 52.37     556.36
 52.47     508.78
 52.57     516.68
 52.67     527.00
 52.77     549.00
 52.87     629.00
 52.97     665.00
 53.07     666.00
 53.17     828.00
 53.27     947.00
 53.37    1049.00
 53.47    1103.00
 53.57    1216.27
 53.67    1247.08
 53.77    1114.94
 53.87     936.68
 53.97     844.25
 54.07     737.00
 54.17     683.00
 54.27     568.34
 54.37     581.31
 54.47     533.00
 54.57     513.45
 54.67     528.00
 54.77     519.00
 54.87     504.61
 54.97     557.00
 55.07     545.00
 55.17     541.00
 55.27     541.99
 55.37     516.85
 55.47     522.85
 55.57     574.00
 55.67     552.67
 55.77     529.00
 55.87     554.71
 55.97     578.00
 56.07     590.00
 56.17     667.72
 56.27     758.00
 56.37     896.00
 56.47    1225.00
 56.57    1603.15
 56.67    1953.00
 56.77    2268.00
 56.87    2593.00
 56.97    2666.00
 57.07    2542.87
 57.17    2308.00
 57.27    1836.01
 57.37    1453.98
 57.47    1229.62
 57.57     995.00
 57.67     831.00
 57.77     753.81
 57.87     678.17
 57.97     693.00
 58.07     602.78
 58.17     695.98
 58.27     720.00
 58.37     786.00
 58.47     868.00
 58.57     995.00
 58.67    1081.00
 58.77    1357.00
 58.87    1424.00
 58.97    1562.07
 59.07    1602.94
 59.17    1603.00
 59.27    1505.00
 59.37    1430.00
 59.47    1331.00
 59.57    1177.00
 59.67    1131.00
 59.77    1104.99
 59.87    1166.00
 59.97    1249.00
 60.07    1382.31
 60.17    1497.00
 60.27    1616.39
 60.37    1487.53
 60.47    1502.31
 60.57    1317.00
 60.67    1131.18
 60.77    1031.00
 60.87     837.22
 60.97     714.68
 61.07     676.21
 61.17     590.77
 61.27     609.63
 61.37     604.00
 61.47     670.14
 61.57     669.76
 61.67     761.00
 61.77     816.23
 61.87    1011.00
 61.97    1164.39
 62.07    1302.47
 62.17    1329.00
 62.27    1448.00
 62.37    1372.00
 62.47    1281.00
 62.57    1127.83
 62.67     988.00
 62.77     883.00
 62.87     708.00
 62.97     669.00
 63.07     594.00
 63.17     578.00
 63.27     531.17
 63.37     593.80
 63.47     508.96
 63.57     552.90
 63.67     522.00
 63.77     556.00
 63.87     606.25
 63.97     599.00
 64.07     703.00
 64.17     665.00
 64.27     809.00
 64.37     848.00
 64.47     929.00
 64.57     994.00
 64.67     991.00
 64.77    1044.00
 64.87     952.73
 64.97    1018.03
 65.07     903.00
 65.17     828.00
 65.27     817.77
 65.37     689.10
 65.47     726.66
 65.57     640.46
 65.67     665.00
 65.77     585.00
 65.87     586.00
 65.97     532.20
 66.07     523.77
 66.17     582.00
 66.27     565.00
 66.37     547.79
 66.47     560.00
 66.57     521.00
 66.67     497.00
 66.77     596.00
 66.87     600.00
 66.97     558.00
 67.07     598.00
 67.17     663.00
 67.27     659.20
 67.37     730.00
 67.47     893.00
 67.57    1010.00
 67.67    1331.96
 67.77    1551.00
 67.87    1793.98
 67.97    2122.82
 68.07    2389.00
 68.17    2509.86
 68.27    2426.00
 68.37    2418.00
 68.47    2092.00
 68.57    1872.07
 68.67    1556.00
 68.77    1248.00
 68.87    1047.00
 68.97     883.55
 69.07     740.00
 69.17     691.07
 69.27     636.00
 69.37     590.00
 69.47     609.00
 69.57     587.00
 69.67     533.88
 69.77     591.00
 69.87     553.14
 69.97     570.75
 70.07     578.00
 70.17     610.00
 70.27     501.00
 70.37     524.03
 70.47     574.30
 70.57     561.84
 70.67     557.00
 70.77     580.00
 70.87     588.00
 70.97     578.57
 71.07     645.00
 71.17     662.51
 71.27     696.82
 71.37     845.00
 71.47     988.52
 71.57    1050.00
 71.67    1254.00
 71.77    1436.00
 71.87    1627.00
 71.97    1830.00
 72.07    1923.00
 72.17    1968.36
 72.27    1920.24
 72.37    1752.00
 72.47    1730.00
 72.57    1575.00
 72.67    1353.55
 72.77    1187.00
 72.87    1072.00
 72.97     981.00
 73.07     892.00
 73.17     859.93
 73.27     787.00
 73.37     714.00
 73.47     743.31
 73.57     610.00
 73.67     588.00
 73.77     646.52
 73.87     579.00
 73.97     557.20
 74.07     569.00
 74.17     546.00
 74.27     596.58
 74.37     541.90
 74.47     518.14
 74.57     589.00
 74.67     598.00
 74.77     517.29
 74.87     630.00
 74.97     587.14
 75.07     575.00
 75.17     564.19
 75.27     500.07
 75.37     540.00
 75.47     552.00
 75.57     543.00
 75.67     571.98
 75.77     519.00
 75.87     529.12
 75.97     536.20
 76.07     590.01
 76.17     645.72
 76.27     597.16
 76.37     703.00
 76.47     667.00
 76.57     694.16
 76.67     704.00
 76.77     694.00
 76.87     735.14
 76.97     663.00
 77.07     619.80
 77.17     584.00
 77.27     575.00
 77.37     578.94
 77.47     573.00
 77.57     536.00
 77.67     506.00
 77.77     540.89
 77.87     540.00
 77.97     509.57
 78.07     530.00
 78.17     531.00
 78.27     510.78
 78.37     511.00
 78.47     533.00
 78.57     553.27
 78.67     515.00
 78.77     509.00
 78.87     556.94
 78.97     520.00
 79.07     517.00
 79.17     536.40
 79.27     537.98
 79.37     490.00
 79.47     572.00
 79.57     528.93
 79.67     531.23
 79.77     497.26
 79.87     523.00
 79.97     506.00
 80.07     550.56
 80.17     510.29
 80.27     524.00
 80.37     525.00
 80.47     609.52
 80.57     580.00
 80.67     641.00
 80.77     579.00
 80.87     646.00
 80.97     640.00
 81.07     662.00
 81.17     696.00
 81.27     768.43
 81.37     699.89
 81.47     749.00
 81.57     768.00
 81.67     737.00
 81.77     739.00
 81.87     700.00
 81.97     684.00
 82.07     689.56
 82.17     657.00
 82.27     677.00
 82.37     640.00
 82.47     639.00
 82.57     598.00
 82.67     561.69
 82.77     577.00
 82.87     522.12
 82.97     554.00
 83.07     538.00
 83.17     507.04
 83.27     582.99
 83.37     522.00
 83.47     560.00
 83.57     555.00
 83.67     533.00
 83.77     558.00
 83.87     510.00
 83.97     594.00
 84.07     517.00
 84.17     509.00
 84.27     565.43
 84.37     516.56
 84.47     588.07
 84.57     509.77
 84.67     533.00
 84.77     517.71
 84.87     501.51
 84.97     553.57
 85.07     550.17
 85.17     493.00
 85.27     505.00
 85.37     503.00
 85.47     472.41
 85.57     495.00
 85.67     518.00
 85.77     538.36
 85.87     521.00
 85.97     489.00
 86.07     551.03
 86.17     514.22
 86.27     508.00
 86.37     529.51
 86.47     525.00
 86.57     489.53
 86.67     575.52
 86.77     584.47
 86.87     550.93
 86.97     637.00
 87.07     613.00
 87.17     628.00
 87.27     646.00
 87.37     618.32
 87.47     606.00
 87.57     588.72
 87.67     632.00
 87.77     563.00
 87.87     584.34
 87.97     570.00
 88.07     623.00
 88.17     627.13
 88.27     585.00
 88.37     591.00
 88.47     566.00
 88.57     544.00
 88.67     571.00
 88.77     567.00
 88.87     561.00
 88.97     591.00
 89.07     557.00
 89.17     537.38
 89.27     588.00
 89.37     605.00
 89.47     635.00
 89.57     548.28
 89.67     591.00
 89.77     610.00
 89.87     565.00
 89.97     588.23
 90.07     516.92
 90.17     538.60
 90.27     541.00
 90.37     543.00
 90.47     543.00
 90.57     553.07
 90.67     512.00
 90.77     540.48
 90.87     510.00
 90.97     495.00
 91.07     494.00
 91.17     477.00
 91.27     514.00
 91.37     510.00
 91.47     533.78
 91.57     499.00
 91.67     544.00
 91.77     527.91
 91.87     488.00
 91.97     507.35
 92.07     543.00
 92.17     532.00
 92.27     482.00
 92.37     562.00
 92.47     571.62
 92.57     597.00
 92.67     625.00
 92.77     647.00
 92.87     613.90
 92.97     704.00
 93.07     777.00
 93.17     743.00
 93.27     751.00
 93.37     780.00
 93.47     746.75
 93.57     784.00
 93.67     831.63
 93.77     817.00
 93.87     809.00
 93.97     789.14
 94.07     855.00
 94.17     837.00
 94.27     844.99
 94.37     818.00
 94.47     879.00
 94.57     906.35
 94.67     888.00
 94.77     878.38
 94.87     858.26
 94.97     937.00
 95.07     883.00
 95.17     837.00
 95.27     877.78
 95.37     793.00
 95.47     815.11
 95.57     764.00
 95.67     768.67
 95.77     744.49
 95.87     694.00
 95.97     676.02
 96.07     611.46
 96.17     642.00
 96.27     636.64
 96.37     672.68
 96.47     678.00
 96.57     780.78
 96.67     824.00
 96.77     859.00
 96.87     982.00
 96.97    1041.00
 97.07    1100.11
 97.17    1200.00
 97.27    1242.00
 97.37    1329.67
 97.47    1453.00
 97.57    1355.00
 97.67    1468.00
 97.77    1501.37
 97.87    1460.00
 97.97    1366.00
 98.07    1317.00
 98.17    1272.93
 98.27    1182.00
 98.37    1062.00
 98.47    1075.00
 98.57     983.00
 98.67     894.00
 98.77     835.00
 98.87     821.41
 98.97     735.00
 99.07     757.00
 99.17     797.00
 99.27     847.00
 99.37     892.49
 99.47     944.29
 99.57     912.78
 99.67    1033.28
 99.77    1071.00
 99.87    1184.00
 99.97    1351.00
100.07    1456.00
100.17    1559.00
100.27    1705.90
100.37    1793.00
100.47    1786.36
100.57    2033.40
100.67    1972.16
100.77    2145.00
100.87    2051.34
100.97    2037.05
101.07    2138.00
101.17    2088.00
101.27    1936.78
101.37    1874.00
101.47    1748.62
101.57    1724.00
101.67    1661.29
101.77    1572.64
101.87    1512.29
101.97    1340.00
102.07    1278.00
102.17    1323.01
102.27    1228.00
102.37    1183.00
102.47    1138.00
102.57    1078.00
102.67    1124.00
102.77    1073.00
102.87    1021.00
102.97    1001.00
103.07    1048.73
103.17     925.00
103.27     867.00
103.37     853.00
103.47     813.79
103.57     755.54
103.67     780.00
103.77     751.91
103.87     701.00
103.97     620.78
104.07     668.00
104.17     644.00
104.27     593.00
104.37     559.00
104.47     515.47
104.57     524.00
104.67     514.25
104.77     503.11
104.87     555.93
104.97     549.08
105.07     569.00
105.17     494.09
105.27     538.60
105.37     511.71
105.47     487.90
105.57     550.00
105.67     496.62
105.77     508.00
105.87     504.85
105.97     549.00
106.07     536.00
106.17     519.00
106.27     570.37
106.37     594.51
106.47     565.00
106.57     575.01
106.67     602.78
106.77     588.00
106.87     672.80
106.97     636.00
107.07     670.88
107.17     653.00
107.27     658.00
107.37     692.11
107.47     674.19
107.57     655.00
107.67     639.00
107.77     683.00
107.87     669.00
107.97     722.29
108.07     610.00
108.17     643.00
108.27     688.66
108.37     646.00
108.47     648.00
108.57     637.91
108.67     669.95
108.77     648.14
108.87     687.00
108.97     653.00
109.07     706.00
109.17     652.61
109.27     657.00
109.37     648.00
109.47     622.58
109.57     654.76
109.67     637.00
109.77     679.00
109.87     618.00
109.97     616.63
110.07     604.00
110.17     598.72
110.27     588.00
110.37     563.00
110.47     567.00
110.57     553.00
110.67     542.97
110.77     549.30
110.87     500.00
110.97     562.55
111.07     551.00
111.17     554.00
111.27     513.21
111.37     549.00
111.47     527.00
111.57     493.26
111.67     508.83
111.77     527.00
111.87     572.28
111.97     512.00
112.07     504.92
112.17     556.00
112.27     523.00
112.37     557.00
112.47     604.00
112.57     558.00
112.67     578.00
112.77     609.11
112.87     628.00
112.97     604.00
113.07     666.00
113.17     613.09
113.27     707.00
113.37     712.00
113.47     738.00
113.57     834.00
113.67     797.00
113.77     905.00
113.87     868.00
113.97     945.87
114.07    1006.29
114.17    1025.00
114.27    1016.00
114.37    1186.18
114.47    1232.00
114.57    1256.00
114.67    1396.00
114.77    1631.00
114.87    1588.86
114.97    1845.00
115.07    2051.00
115.17    2240.75
115.27    2562.00
115.37    2749.54
115.47    2978.00
115.57    3344.00
115.67    3709.13
115.77    3861.00
115.87    4230.00
115.97    4620.00
116.07    5151.54
116.17    5595.15
116.27    5761.00
116.37    6186.30
116.47    6593.00
116.57    6844.06
116.67    7107.00
116.77    7107.00
116.87    7347.00
116.97    7339.00
117.07    7039.00
117.17    6935.00
117.27    6678.00
117.37    6282.00
117.47    6066.56
117.57    5610.61
117.67    5059.00
117.77    4776.00
117.87    4344.78
117.97    4130.00
118.07    3774.00
118.17    3364.00
118.27    2987.00
118.37    2623.00
118.47    2353.00
118.57    2007.00
118.67    1716.87
118.77    1542.08
118.87    1399.00
118.97    1174.00
119.07    1109.44
119.17    1027.64
119.27    1016.61
119.37     836.21
119.47     843.62
119.57     824.00
119.67     734.00
119.77     706.00
119.87     658.00
119.97     666.00
120.07     593.00
120.17     599.00
120.27     581.33
120.37     608.00
120.47     626.11
120.57     571.35
120.67     555.49
120.77     562.00
120.87     536.00
120.97     586.00
121.07     596.95
121.17     547.00
121.27     566.23
121.37     599.00
121.47     539.00
121.57     543.00
121.67     578.00
121.77     589.73
121.87     611.08
121.97     570.00
122.07     577.00
122.17     569.28
122.27     578.00
122.37     591.89
122.47     613.58
122.57     658.00
122.67     638.02
122.77     597.07
122.87     671.59
122.97     657.00
123.07     656.97
123.17     608.85
123.27     634.00
123.37     632.30
123.47     659.85
123.57     646.00
123.67     603.55
123.77     614.76
123.87     646.00
123.97     579.00
124.07     609.50
124.17     612.00
124.27     651.00
124.37     580.00
124.47     652.00
124.57     573.00
124.67     625.00
124.77     585.00
124.87     587.00
124.97     608.00
