  9.97     586.00
 10.07     563.90
 10.17     587.00
 10.27     578.00
 10.37     592.00
 10.47     596.00
 10.57     587.00
 10.67     561.00
 10.77     533.00
 10.87     603.00
 10.97     555.00
 11.07     621.00
 11.17     564.00
 11.27     566.00
 11.37     576.00
 11.47     566.10
 11.57     550.00
 11.67     604.49
 11.77     602.00
 11.87     557.10
 11.97     662.00
 12.07     627.88
 12.17     672.00
 12.27     677.00
 12.37     712.12
 12.47     637.00
 12.57     594.00
 12.67     562.38
 12.77     583.23
 12.87     555.00
 12.97     597.87
 13.07     507.00
 13.17     614.00
 13.27     545.00
 13.37     599.32
 13.47     558.00
 13.57     565.00
 13.67     548.42
 13.77     588.41
 13.87     568.05
 13.97     530.72
 14.07     544.00
 14.17     574.00
 14.27     566.35
 14.37     554.00
 14.47     597.30
 14.57     533.00
 14.67     550.00
 14.77     640.00
 14.87     572.79
 14.97     598.07
 15.07     538.00
 15.17     553.00
 15.27     569.00
 15.37     550.83
 15.47     571.23
 15.57     524.77
 15.67     608.13
 15.77     561.00
 15.87     535.91
 15.97     520.43
 16.07     607.69
 16.17     577.00
 16.27     530.00
 16.37     533.00
 16.47     558.00
 16.57     593.54
 16.67     560.00
 16.77     596.20
 16.87     552.00
 16.97     602.45
 17.07     578.00
 17.17     550.00
 17.27     544.00
 17.37     606.67
 17.47     587.00
 17.57     568.00
 17.67     531.00
 17.77     532.00
 17.87     514.00
 17.97     512.00
 18.07     564.00
 18.17     547.66
 18.27     531.00
 18.37     574.00
 18.47     579.00
 18.57     534.34
 18.67     562.00
 18.77     556.47
 18.87     560.00
 18.97     556.00
 19.07     563.00
 19.17     569.00
 19.27     598.18
 19.37     537.00
 19.47     569.00
 19.57     574.43
 19.67     524.04
 19.77     522.00
 19.87     514.00
 19.97     537.52
 20.07     531.00
 20.17     521.00
 20.27     539.00
 20.37     618.00
 20.47     576.60
 20.57     562.00
 20.67     600.40
 20.77     539.35
 20.87     580.27
 20.97     534.19
 21.07     583.00
 21.17     547.00
 21.27     558.00
 21.37     530.00
 21.47     525.00
 21.57     539.00
 21.67     541.00
 21.77     523.00
 21.87     510.00
 21.97     552.00
 22.07     511.85
 22.17     571.00
 22.27     560.00
 22.37     516.00
 22.47     533.23
 22.57     593.32
 22.67     540.00
 22.77     540.50
 22.87     506.70
 22.97     538.00
 23.07     550.00
 23.17     563.00
 23.27     545.00
 23.37     535.00
 23.47     575.53
 23.57     541.00
 23.67     593.00
 23.77     569.56
 23.87     505.02
 23.97     549.00
 24.07     521.00
 24.17     557.00
 24.27     573.00
 24.37     598.00
 24.47     605.78
 24.57     617.92
 24.67     624.00
 24.77     572.00
 24.87     640.77
 24.97     661.49
 25.07     552.45
 25.17     569.00
 25.27     575.45
 25.37     564.50
 25.47     526.00
 25.57     509.99
 25.67     571.00
 25.77     545.00
 25.87     528.88
 25.97     545.00
 26.07     517.25
 26.17     592.00
 26.27     590.00
 26.37     523.75
 26.47     540.00
 26.57     568.14
 26.67     568.00
 26.77     521.00
 26.87     593.00
 26.97     526.00
 27.07     598.00
 27.17     571.00
 27.27     581.00
 27.37     575.48
 27.47     547.00
 27.57     568.00
 27.67     530.59
 27.77     581.00
 27.87     599.00
 27.97     647.00
 28.07     768.86
 28.17     900.12
 28.27     945.00
 28.37     903.00
 28.47     877.44
 28.57     691.20
 28.67     692.00
 28.77     733.00
 28.87     792.00
 28.97     778.58
 29.07     770.76
 29.17     750.09
 29.27     659.00
 29.37     589.00
 29.47     609.00
 29.57     535.40
 29.67     565.00
 29.77     592.00
 29.87     515.63
 29.97     593.00
 30.07     563.00
 30.17     529.23
 30.27     543.00
 30.37     568.00
 30.47     579.18
 30.57     572.00
 30.67     516.75
 30.77     588.00
 30.87     572.00
 30.97     619.27
 31.07     623.00
 31.17     546.60
 31.27     565.00
 31.37     538.00
 31.47     553.25
 31.57     566.00
 31.67     569.42
 31.77     563.72
 31.87     568.11
 31.97     612.00
 32.07     560.97
 32.17     572.00
 32.27     509.00
 32.37     564.00
 32.47     557.00
 32.57     556.00
 32.67     511.00
 32.77     550.00
 32.87     509.00
 32.97     581.00
 33.07     534.00
 33.17     530.49
 33.27     554.31
 33.37     557.00
 33.47     589.97
 33.57     601.83
 33.67     594.00
 33.77     751.00
 33.87     786.73
 33.97    1004.00
 34.07    1043.00
 34.17     966.52
 34.27     876.60
 34.37     839.00
 34.47     710.00
 34.57     664.49
 34.67     537.00
 34.77     528.00
 34.87     548.45
 34.97     533.00
 35.07     557.00
 35.17     527.00
 35.27     493.28
 35.37     518.98
 35.47     531.11
 35.57     555.00
 35.67     549.00
 35.77     480.00
 35.87     525.00
 35.97     472.18
 36.07     518.37
 36.17     538.41
 36.27     515.04
 36.37     485.00
 36.47     507.39
 36.57     475.00
 36.67     498.00
 36.77     550.00
 36.87     466.00
 36.97     501.00
 37.07     512.00
 37.17     512.00
 37.27     500.00
 37.37     532.49
 37.47     532.00
 37.57     492.00
 37.67     533.00
 37.77     510.00
 37.87     529.00
 37.97     524.66
 38.07     535.78
 38.17     518.10
 38.27     512.00
 38.37     489.00
 38.47     482.48
 38.57     486.11
 38.67     463.60
 38.77     471.00
 38.87     469.14
 38.97     473.00
 39.07     502.17
 39.17     500.00
 39.27     483.51
 39.37     509.00
 39.47     520.91
 39.57     536.82
 39.67     507.00
 39.77     475.00
 39.87     497.74
 39.97     491.12
 40.07     526.61
 40.17     478.27
 40.27     460.00
 40.37     458.36
 40.47     475.00
 40.57     508.00
 40.67     527.94
 40.77     499.00
 40.87     521.02
 40.97     463.02
 41.07     507.00
 41.17     480.00
 41.27     491.00
 41.37     518.53
 41.47     502.11
 41.57     518.46
 41.67     478.14
 41.77     501.00
 41.87     544.00
 41.97     540.12
 42.07     527.42
 42.17     540.45
 42.27     512.00
 42.37     537.04
 42.47     582.48
 42.57     572.00
 42.67     603.67
 42.77     612.00
 42.87     640.25
 42.97     578.00
 43.07     539.00
 43.17     560.00
 43.27     529.05
 43.37     481.88
 43.47     515.00
 43.57     467.58
 43.67     518.00
 43.77     541.00
 43.87     474.34
 43.97     513.00
 44.07     490.71
 44.17     553.00
 44.27     503.40
 44.37     492.00
 44.47     483.00
 44.57     530.68
 44.67     472.00
 44.77     491.00
 44.87     503.00
 44.97     481.00
 45.07     534.62
 45.17     488.00
 45.27     468.00
 45.37     500.00
 45.47     507.00
 45.57     500.00
 45.67     520.00
 45.77     507.00
 45.87     471.00
 45.97     541.00
 46.07     473.71
 46.17     504.00
 46.27     503.13
 46.37     471.00
 46.47     483.60
 46.57     481.00
 46.67     495.85
 46.77     525.00
 46.87     523.00
 46.97     518.76
 47.07     541.33
 47.17     496.00
 47.27     504.00
 47.37     508.00
 47.47     523.00
 47.57     556.00
 47.67     551.00
 47.77     542.35
 47.87     602.12
 47.97     554.46
 48.07     634.00
 48.17     613.00
 48.27     537.00
 48.37     562.00
 48.47     504.00
 48.57     528.00
 48.67     496.00
 48.77     522.00
 48.87     525.46
 48.97     523.99
 49.07     525.00
 49.17     530.00
 49.27     524.00
 49.37     601.48
 49.47     573.75
 49.57     690.73
 49.67     833.00
 49.77     980.00
 49.87    1278.00
 49.97    1600.73
 50.07    1924.00
 50.17    2372.00
 50.27    2375.84
 50.37    2300.00
 50.47    1884.00
 50.57    1645.00
 50.67    1196.00
 50.77     942.00
 50.87     796.00
 50.97     709.00
 51.07     665.00
 51.17     657.67
 51.27     616.00
 51.37     600.00
 51.47     535.03
 51.57     580.00
 51.67     556.40
 51.77     585.00
 51.87     539.39
 51.97     541.00
 52.07     514.00
 52.17     558.00
 52.27     545.00
 52.37     579.00
 52.47     582.00
 52.57     562.50
 52.67     573.00
 52.77     589.00
 52.87     575.04
 52.97     617.62
 53.07     749.00
 53.17     870.00
 53.27     991.00
 53.37    1112.00
 53.47    1177.00
 53.57    1243.00
 53.67    1210.63
 53.77    1043.00
 53.87     940.00
 53.97     844.00
 54.07     732.00
 54.17     621.00
 54.27     574.54
 54.37     582.00
 54.47     584.21
 54.57     563.00
 54.67     543.00
 54.77     513.39
 54.87     575.00
 54.97     548.00
 55.07     592.00
 55.17     502.12
 55.27     509.44
 55.37     549.00
 55.47     591.00
 55.57     539.41
 55.67     592.00
 55.77     617.77
 55.87     606.00
 55.97     657.00
 56.07     684.00
 56.17     720.41
 56.27     817.00
 56.37     984.00
 56.47    1285.00
 56.57    1614.00
 56.67    2051.74
 56.77    2235.06
 56.87    2606.64
 56.97    2488.00
 57.07    2453.00
 57.17    2222.35
 57.27    1865.37
 57.37    1538.88
 57.47    1170.21
 57.57    1032.80
 57.67     855.00
 57.77     750.47
 57.87     775.00
 57.97     667.00
 58.07     706.00
 58.17     676.00
 58.27     716.00
 58.37     809.62
 58.47     845.00
 58.57     885.00
 58.67    1075.00
 58.77    1076.00
 58.87    1166.00
 58.97    1237.00
 59.07    1318.00
 59.17    1343.61
 59.27    1216.74
 59.37    1256.91
 59.47    1213.00
 59.57    1175.92
 59.67    1197.00
 59.77    1140.34
 59.87    1260.00
 59.97    1282.00
 60.07    1416.95
 60.17    1457.00
 60.27    1527.36
 60.37    1475.79
 60.47    1464.00
 60.57    1279.79
 60.67    1119.00
 60.77    1023.00
 60.87     830.45
 60.97     734.55
 61.07     701.00
 61.17     644.04
 61.27     694.70
 61.37     691.00
 61.47     677.00
 61.57     721.79
 61.67     845.00
 61.77     894.85
 61.87    1073.00
 61.97    1162.14
 62.07    1300.00
 62.17    1356.00
 62.27    1336.00
 62.37    1300.00
 62.47    1207.00
 62.57    1107.00
 62.67    1020.56
 62.77     810.00
 62.87     752.00
 62.97     647.00
 63.07     660.78
 63.17     597.00
 63.27     564.00
 63.37     569.00
 63.47     573.00
 63.57     547.98
 63.67     600.00
 63.77     562.00
 63.87     648.00
 63.97     670.38
 64.07     663.00
 64.17     735.00
 64.27     821.00
 64.37     902.61
 64.47     922.00
 64.57     933.00
 64.67    1012.00
 64.77     956.94
 64.87    1005.00
 64.97     944.00
 65.07     888.00
 65.17     856.00
 65.27     802.00
 65.37     711.07
 65.47     654.00
 65.57     589.00
 65.67     592.17
 65.77     594.93
 65.87     573.00
 65.97     533.59
 66.07     526.00
 66.17     551.00
 66.27     582.00
 66.37     555.70
 66.47     511.00
 66.57     590.00
 66.67     572.00
 66.77     526.00
 66.87     557.31
 66.97     575.68
 67.07     627.82
 67.17     695.75
 67.27     708.00
 67.37     844.14
 67.47    1032.43
 67.57    1167.37
 67.67    1320.78
 67.77    1671.00
 67.87    1900.00
 67.97    2185.00
 68.07    2312.79
 68.17    2447.00
 68.27    2241.60
 68.37    2236.00
 68.47    2058.00
 68.57    1723.00
 68.67    1552.00
 68.77    1206.00
 68.87    1038.00
 68.97     941.72
 69.07     763.00
 69.17     751.00
 69.27     641.26
 69.37     614.86
 69.47     632.00
 69.57     611.55
 69.67     605.00
 69.77     567.00
 69.87     561.00
 69.97     554.00
 70.07     610.32
 70.17     540.00
 70.27     567.00
 70.37     566.16
 70.47     576.00
 70.57     575.30
 70.67     558.00
 70.77     536.00
 70.87     592.00
 70.97     603.00
 71.07     664.00
 71.17     712.15
 71.27     781.00
 71.37     931.23
 71.47     968.00
 71.57    1208.00
 71.67    1326.49
 71.77    1449.00
 71.87    1616.00
 71.97    1750.00
 72.07    1867.49
 72.17    1854.00
 72.27    1791.00
 72.37    1614.18
 72.47    1616.00
 72.57    1321.02
 72.67    1181.00
 72.77    1098.65
 72.87     938.00
 72.97     846.00
 73.07     765.00
 73.17     680.00
 73.27     726.00
 73.37     692.00
 73.47     628.00
 73.57     570.00
 73.67     582.00
 73.77     620.00
 73.87     539.00
 73.97     603.57
 74.07     586.00
 74.17     617.00
 74.27     585.00
 74.37     654.00
 74.47     652.00
 74.57     591.00
 74.67     586.12
 74.77     594.00
 74.87     596.41
 74.97     627.00
 75.07     613.00
 75.17     552.17
 75.27     594.91
 75.37     572.00
 75.47     595.00
 75.57     566.62
 75.67     537.00
 75.77     576.45
 75.87     588.00
 75.97     576.00
 76.07     651.01
 76.17     584.00
 76.27     644.00
 76.37     701.00
 76.47     684.00
 76.57     722.00
 76.67     710.65
 76.77     688.94
 76.87     689.84
 76.97     684.03
 77.07     663.00
 77.17     633.00
 77.27     627.38
 77.37     562.00
 77.47     540.04
 77.57     514.75
 77.67     519.00
 77.77     544.00
 77.87     558.76
 77.97     532.00
 78.07     552.00
 78.17     538.00
 78.27     510.00
 78.37     520.81
 78.47     485.00
 78.57     484.00
 78.67     470.00
 78.77     522.00
 78.87     498.60
 78.97     519.00
 79.07     459.00
 79.17     478.00
 79.27     538.00
 79.37     539.00
 79.47     462.00
 79.57     538.35
 79.67     511.00
 79.77     514.42
 79.87     500.00
 79.97     511.42
 80.07     506.31
 80.17     499.00
 80.27     518.77
 80.37     558.00
 80.47     600.96
 80.57     568.42
 80.67     576.00
 80.77     605.00
 80.87     668.00
 80.97     647.70
 81.07     674.00
 81.17     720.29
 81.27     701.00
 81.37     764.00
 81.47     749.00
 81.57     722.00
 81.67     725.00
 81.77     719.00
 81.87     694.00
 81.97     721.00
 82.07     694.00
 82.17     642.57
 82.27     664.12
 82.37     659.57
 82.47     626.00
 82.57     575.00
 82.67     562.00
 82.77     540.86
 82.87     507.00
 82.97     517.00
 83.07     521.00
 83.17     576.56
 83.27     571.00
 83.37     555.00
 83.47     532.00
 83.57     503.00
 83.67     524.43
 83.77     560.00
 83.87     560.00
 83.97     601.26
 84.07     612.27
 84.17     526.84
 84.27     509.00
 84.37     584.00
 84.47     552.74
 84.57     521.75
 84.67     515.00
 84.77     530.00
 84.87     515.34
 84.97     487.63
 85.07     546.83
 85.17     493.26
 85.27     490.00
 85.37     549.64
 85.47     505.40
 85.57     521.00
 85.67     495.00
 85.77     546.43
 85.87     527.00
 85.97     511.00
 86.07     500.89
 86.17     513.00
 86.27     521.00
 86.37     537.00
 86.47     570.00
 86.57     553.00
 86.67     574.00
 86.77     543.00
 86.87     533.56
 86.97     630.00
 87.07     627.00
 87.17     612.45
 87.27     598.55
 87.37     609.00
 87.47     632.83
 87.57     645.00
 87.67     636.00
 87.77     636.00
 87.87     592.00
 87.97     612.00
 88.07     564.35
 88.17     582.00
 88.27     595.00
 88.37     604.96
 88.47     596.00
 88.57     572.00
 88.67     597.00
 88.77     572.35
 88.87     611.00
 88.97     593.00
 89.07     528.75
 89.17     584.08
 89.27     582.00
 89.37     600.00
 89.47     598.00
 89.57     596.00
 89.67     583.79
 89.77     599.00
 89.87     572.00
 89.97     606.00
 90.07     528.00
 90.17     524.00
 90.27     501.00
 90.37     467.00
 90.47     539.00
 90.57     521.04
 90.67     487.90
 90.77     517.00
 90.87     512.00
 90.97     542.99
 91.07     510.13
 91.17     507.00
 91.27     559.00
 91.37     508.00
 91.47     513.97
 91.57     515.00
 91.67     493.00
 91.77     532.00
 91.87     495.67
 91.97     577.00
 92.07     557.00
 92.17     544.61
 92.27     584.00
 92.37     610.88
 92.47     579.00
 92.57     642.93
 92.67     654.00
 92.77     676.00
 92.87     655.99
 92.97     692.68
 93.07     687.00
 93.17     740.00
 93.27     706.00
 93.37     705.00
 93.47     769.00
 93.57     723.00
 93.67     743.00
 93.77     791.88
 93.87     772.20
 93.97     845.41
 94.07     851.00
 94.17     852.00
 94.27     795.68
 94.37     879.87
 94.47     907.82
 94.57     824.85
 94.67     899.00
 94.77     893.00
 94.87     953.00
 94.97     927.00
 95.07     915.00
 95.17     891.00
 95.27     845.00
 95.37     830.00
 95.47     794.00
 95.57     764.00
 95.67     767.00
 95.77     741.12
 95.87     720.24
 95.97     668.00
 96.07     692.00
 96.17     713.00
 96.27     701.00
 96.37     735.00
 96.47     815.00
 96.57     867.16
 96.67     879.28
 96.77     982.70
 96.87    1015.00
 96.97    1056.00
 97.07    1123.00
 97.17    1248.19
 97.27    1284.00
 97.37    1343.00
 97.47    1334.72
 97.57    1439.72
 97.67    1428.00
 97.77    1404.85
 97.87    1452.62
 97.97    1390.67
 98.07    1310.00
 98.17    1276.00
 98.27    1244.27
 98.37    1102.00
 98.47    1036.10
 98.57     956.00
 98.67     931.00
 98.77     956.78
 98.87     921.21
 98.97     781.00
 99.07     854.75
 99.17     858.00
 99.27     896.00
 99.37     899.78
 99.47     967.66
 99.57    1026.36
 99.67    1102.05
 99.77    1238.92
 99.87    1278.00
 99.97    1433.61
100.07    1470.00
100.17    1598.00
100.27    1730.00
100.37    1730.34
100.47    1880.00
100.57    1914.00
100.67    2032.67
100.77    2042.00
100.87    2006.00
100.97    1992.00
101.07    1900.41
101.17    1886.00
101.27    1866.00
101.37    1790.00
101.47    1630.51
101.57    1618.00
101.67    1557.00
101.77    1486.00
101.87    1348.00
101.97    1287.00
102.07    1265.00
102.17    1202.00
102.27    1262.61
102.37    1139.09
102.47    1139.00
102.57    1124.00
102.67    1095.00
102.77    1136.42
102.87    1048.00
102.97    1057.03
103.07    1039.16
103.17     943.00
103.27     897.00
103.37     892.00
103.47     851.00
103.57     788.52
103.67     789.96
103.77     778.00
103.87     657.00
103.97     735.00
104.07     674.00
104.17     616.00
104.27     632.00
104.37     595.00
104.47     564.00
104.57     597.53
104.67     579.46
104.77     571.00
104.87     519.64
104.97     555.85
105.07     541.00
105.17     564.00
105.27     579.00
105.37     501.80
105.47     511.63
105.57     543.00
105.67     553.00
105.77     549.00
105.87     508.50
105.97     584.60
106.07     540.16
106.17     553.00
106.27     572.00
106.37     565.00
106.47     613.00
106.57     557.00
106.67     661.66
106.77     625.75
106.87     693.00
106.97     627.19
107.07     628.68
107.17     716.55
107.27     718.00
107.37     641.00
107.47     715.00
107.57     692.00
107.67     683.00
107.77     669.38
107.87     665.21
107.97     730.29
108.07     671.00
108.17     704.17
108.27     706.00
108.37     689.00
108.47     667.00
108.57     683.00
108.67     623.00
108.77     693.00
108.87     650.00
108.97     706.00
109.07     658.00
109.17     681.00
109.27     656.00
109.37     736.00
109.47     649.00
109.57     616.00
109.67     636.00
109.77     618.00
109.87     636.00
109.97     610.00
110.07     561.21
110.17     597.60
110.27     623.01
110.37     610.21
110.47     592.00
110.57     546.00
110.67     531.46
110.77     510.24
110.87     554.00
110.97     523.00
111.07     552.00
111.17     569.00
111.27     541.00
111.37     527.36
111.47     573.19
111.57     540.73
111.67     511.56
111.77     534.00
111.87     599.12
111.97     542.00
112.07     596.92
112.17     551.90
112.27     539.88
112.37     535.00
112.47     565.00
112.57     610.32
112.67     558.30
112.77     576.00
112.87     556.00
112.97     614.00
113.07     648.00
113.17     571.00
113.27     626.00
113.37     633.94
113.47     663.00
113.57     650.00
113.67     710.66
113.77     757.65
113.87     775.00
113.97     799.00
114.07     808.00
114.17     863.00
114.27     888.75
114.37     930.67
114.47    1009.58
114.57    1094.85
114.67    1278.00
114.77    1431.73
114.87    1607.00
114.97    1676.08
115.07    1993.68
115.17    2139.22
115.27    2471.00
115.37    2676.00
115.47    3067.21
115.57    3402.23
115.67    3727.23
115.77    3941.00
115.87    4318.00
115.97    4694.00
116.07    5053.74
116.17    5347.00
116.27    5676.61
116.37    6285.00
116.47    6343.64
116.57    6416.57
116.67    6834.83
116.77    6806.00
116.87    6898.00
116.97    6874.67
117.07    6650.00
117.17    6468.00
117.27    6237.00
117.37    5875.43
117.47    5381.00
117.57    5238.97
117.67    4980.01
117.77    4534.89
117.87    4210.00
117.97    3837.68
118.07    3536.00
118.17    3223.00
118.27    2911.00
118.37    2475.09
118.47    2286.00
118.57    1970.00
118.67    1779.00
118.77    1596.00
118.87    1418.00
118.97    1316.00
119.07    1134.00
119.17    1085.00
119.27    1006.00
119.37     895.81
119.47     898.86
119.57     799.43
119.67     758.00
119.77     733.00
119.87     686.00
119.97     665.00
120.07     708.62
120.17     690.25
120.27     624.00
120.37     626.00
120.47     607.00
120.57     618.95
120.67     536.00
120.77     580.00
120.87     573.00
120.97     575.04
121.07     580.24
121.17     615.00
121.27     583.71
121.37     610.00
121.47     597.54
121.57     604.91
121.67     575.00
121.77     625.68
121.87     578.00
121.97     591.00
122.07     642.24
122.17     616.72
122.27     606.00
122.37     592.00
122.47     585.00
122.57     652.00
122.67     647.72
122.77     614.00
122.87     638.00
122.97     683.98
123.07     628.00
123.17     666.29
123.27     679.11
123.37     597.00
123.47     666.45
123.57     643.00
123.67     640.95
123.77     634.67
123.87     651.00
123.97     631.00
124.07     661.22
124.17     577.87
124.27     646.26
124.37     671.00
124.47     649.00
124.57     599.61
124.67     590.25
124.77     601.00
124.87     612.00
124.97     598.00
