  9.97     557.40
 10.07     593.00
 10.17     657.00
 10.27     542.20
 10.37     644.00
 10.47     595.00
 10.57     583.00
 10.67     528.48
 10.77     566.00
 10.87     574.00
 10.97     625.00
 11.07     551.29
 11.17     617.00
 11.27     593.41
 11.37     620.07
 11.47     545.94
 11.57     632.00
 11.67     610.09
 11.77     658.00
 11.87     657.00
 11.97     659.00
 12.07     710.00
 12.17     682.08
 12.27     673.00
 12.37     671.00
 12.47     602.00
 12.57     615.00
 12.67     563.20
 12.77     584.48
 12.87     585.00
 12.97     590.00
 13.07     586.00
 13.17     534.69
 13.27     562.48
 13.37     579.57
 13.47     583.00
 13.57     565.00
 13.67     608.73
 13.77     580.00
 13.87     548.00
 13.97     562.00
 14.07     581.00
 14.17     550.00
 14.27     569.67
 14.37     596.00
 14.47     615.12
 14.57     609.00
 14.67     579.00
 14.77     577.00
 14.87     624.48
 14.97     575.00
 15.07     602.99
 15.17     565.00
 15.27     566.00
 15.37     575.40
 15.47     586.61
 15.57     590.63
 15.67     621.96
 15.77     533.00
 15.87     622.80
 15.97     568.00
 16.07     542.00
 16.17     560.00
 16.27     605.12
 16.37     569.00
 16.47     535.00
 16.57     531.00
 16.67     573.72
 16.77     564.00
 16.87     529.00
 16.97     551.00
 17.07     567.00
 17.17     563.00
 17.27     540.37
 17.37     586.00
 17.47     560.10
 17.57     545.00
 17.67     583.00
 17.77     554.00
 17.87     565.00
 17.97     575.00
 18.07     611.00
 18.17     565.00
 18.27     555.76
 18.37     548.00
 18.47     553.00
 18.57     605.50
 18.67     580.00
 18.77     586.00
 18.87     603.69
 18.97     563.00
 19.07     591.57
 19.17     591.00
 19.27     543.00
 19.37     584.00
 19.47     581.00
 19.57     563.00
 19.67     580.41
 19.77     581.00
 19.87     552.00
 19.97     602.55
 20.07     537.00
 20.17     570.00
 20.27     565.93
 20.37     567.00
 20.47     560.00
 20.57     601.29
 20.67     556.00
 20.77     563.00
 20.87     556.00
 20.97     553.03
 21.07     562.11
 21.17     566.00
 21.27     590.00
 21.37     572.53
 21.47     566.53
 21.57     564.00
 21.67     592.00
 21.77     503.00
 21.87     581.00
 21.97     522.57
 22.07     528.00
 22.17     584.00
 22.27     602.54
 22.37     555.00
 22.47     607.00
 22.57     534.00
 22.67     615.00
 22.77     551.02
 22.87     596.96
 22.97     580.00
 23.07     563.00
 23.17     563.00
 23.27     537.00
 23.37     522.00
 23.47     539.00
 23.57     572.00
 23.67     562.00
 23.77     555.00
 23.87     587.01
 23.97     624.00
 24.07     573.52
 24.17     554.00
 24.27     572.00
 24.37     545.16
 24.47     666.00
 24.57     610.00
 24.67     627.00
 24.77     682.00
 24.87     617.73
 24.97     631.89
 25.07     660.00
 25.17     628.00
 25.27     591.96
 25.37     653.00
 25.47     589.00
 25.57     615.00
 25.67     602.00
 25.77     572.00
 25.87     593.00
 25.97     623.00
 26.07     554.00
 26.17     533.02
 26.27     522.72
 26.37     593.00
 26.47     583.00
 26.57     532.85
 26.67     584.00
 26.77     592.00
 26.87     608.69
 26.97     586.93
 27.07     581.00
 27.17     656.00
 27.27     604.00
 27.37     604.54
 27.47     574.98
 27.57     581.00
 27.67     607.00
 27.77     607.00
 27.87     616.95
 27.97     652.00
 28.07     729.41
 28.17     792.90
 28.27     956.85
 28.37     971.00
 28.47     865.84
 28.57     847.00
 28.67     766.00
 28.77     749.00
 28.87     822.00
 28.97     822.00
 29.07     889.91
 29.17     845.00
 29.27     761.00
 29.37     662.00
 29.47     623.00
 29.57     552.92
 29.67     642.00
 29.77     618.00
 29.87     545.00
 29.97     573.00
 30.07     556.67
 30.17     647.00
 30.27     620.00
 30.37     590.23
 30.47     583.00
 30.57     616.00
 30.67     600.00
 30.77     555.80
 30.87     652.00
 30.97     649.74
 31.07     574.79
 31.17     684.00
 31.27     588.00
 31.37     590.00
 31.47     623.00
 31.57     582.00
 31.67     507.83
 31.77     604.00
 31.87     503.86
 31.97     587.00
 32.07     569.00
 32.17     567.00
 32.27     609.00
 32.37     499.16
 32.47     532.00
 32.57     547.00
 32.67     567.00
 32.77     559.00
 32.87     577.07
 32.97     572.00
 33.07     602.00
 33.17     563.00
 33.27     586.00
 33.37     567.00
 33.47     601.51
 33.57     645.00
 33.67     618.00
 33.77     722.87
 33.87     781.00
 33.97     819.48
 34.07    1021.00
 34.17    1037.09
 34.27    1022.00
 34.37     893.00
 34.47     732.00
 34.57     622.00
 34.67     629.18
 34.77     624.82
 34.87     601.12
 34.97     556.00
 35.07     560.00
 35.17     521.00
 35.27     559.00
 35.37     550.13
 35.47     557.00
 35.57     518.02
 35.67     569.00
 35.77     570.94
 35.87     528.00
 35.97     514.00
 36.07     495.73
 36.17     568.50
 36.27     564.00
 36.37     525.00
 36.47     561.07
 36.57     488.17
 36.67     552.00
 36.77     508.00
 36.87     501.76
 36.97     503.81
 37.07     511.00
 37.17     494.63
 37.27     507.00
 37.37     516.00
 37.47     553.00
 37.57     537.00
 37.67     519.00
 37.77     567.29
 37.87     525.30
 37.97     538.00
 38.07     518.00
 38.17     477.00
 38.27     474.00
 38.37     556.51
 38.47     551.00
 38.57     512.00
 38.67     472.34
 38.77     481.00
 38.87     518.00
 38.97     479.34
 39.07     489.00
 39.17     472.00
 39.27     485.00
 39.37     512.31
 39.47     477.00
 39.57     495.00
 39.67     485.64
 39.77     469.26
 39.87     458.00
 39.97     528.04
 40.07     498.00
 40.17     521.00
 40.27     497.31
 40.37     443.00
 40.47     468.12
 40.57     468.00
 40.67     498.00
 40.77     459.21
 40.87     494.00
 40.97     495.00
 41.07     527.00
 41.17     475.61
 41.27     530.70
 41.37     488.00
 41.47     470.26
 41.57     517.50
 41.67     527.00
 41.77     489.00
 41.87     504.00
 41.97     520.00
 42.07     491.00
 42.17     529.00
 42.27     494.00
 42.37     524.00
 42.47     546.00
 42.57     561.00
 42.67     563.00
 42.77     630.56
 42.87     652.95
 42.97     598.00
 43.07     608.01
 43.17     573.00
 43.27     550.00
 43.37     514.38
 43.47     521.00
 43.57     541.00
 43.67     474.00
 43.77     499.00
 43.87     495.00
 43.97     502.46
 44.07     501.26
 44.17     499.61
 44.27     538.00
 44.37     462.53
 44.47     529.00
 44.57     461.00
 44.67     459.45
 44.77     454.00
 44.87     537.81
 44.97     495.61
 45.07     509.00
 45.17     465.00
 45.27     473.27
 45.37     461.12
 45.47     510.00
 45.57     510.00
 45.67     486.00
 45.77     471.77
 45.87     502.00
 45.97     506.13
 46.07     517.00
 46.17     501.00
 46.27     525.64
 46.37     502.00
 46.47     486.61
 46.57     501.00
 46.67     513.00
 46.77     533.00
 46.87     481.00
 46.97     538.00
 47.07     490.00
 47.17     513.00
 47.27     499.00
 47.37     513.00
 47.47     570.76
 47.57     551.74
 47.67     571.00
 47.77     595.79
 47.87     556.00
 47.97     576.00
 48.07     564.75
 48.17     577.00
 48.27     606.22
 48.37     542.00
 48.47     575.05
 48.57     504.00
 48.67     515.00
 48.77     520.95
 48.87     523.00
 48.97     576.00
 49.07     511.00
 49.17     568.00
 49.27     560.00
 49.37     569.00
 49.47     589.74
 49.57     651.17
 49.67     686.00
 49.77     806.99
 49.87    1016.00
 49.97    1318.00
 50.07    1589.29
 50.17    1918.00
 50.27    2210.00
 50.37    2348.00
 50.47    2186.63
 50.57    1950.97
 50.67    1594.00
 50.77    1198.00
 50.87     998.68
 50.97     841.00
 51.07     725.88
 51.17     722.76
 51.27     607.27
 51.37     593.00
 51.47     612.00
 51.57     592.00
 51.67     580.56
 51.77     571.00
 51.87     584.00
 51.97     568.00
 52.07     573.31
 52.17     520.29
 52.27     574.00
 52.37     512.40
 52.47     525.86
 52.57     569.00
 52.67     556.46
 52.77     611.00
 52.87     645.82
 52.97     612.00
 53.07     642.00
 53.17     706.03
 53.27     797.00
 53.37     961.43
 53.47     985.00
 53.57    1144.00
 53.67    1171.00
 53.77    1146.37
 53.87    1112.46
 53.97    1023.00
 54.07     870.00
 54.17     799.00
 54.27     689.99
 54.37     656.00
 54.47     652.00
 54.57     592.00
 54.67     620.32
 54.77     607.00
 54.87     606.00
 54.97     568.74
 55.07     596.00
 55.17     532.43
 55.27     520.61
 55.37     506.31
 55.47     593.00
 55.57     519.00
 55.67     619.23
 55.77     585.44
 55.87     588.00
 55.97     593.00
 56.07     669.83
 56.17     687.00
 56.27     785.00
 56.37     799.00
 56.47    1102.41
 56.57    1250.00
 56.67    1602.00
 56.77    1942.00
 56.87    2230.00
 56.97    2421.00
 57.07    2617.08
 57.17    2417.63
 57.27    2285.00
 57.37    1885.95
 57.47    1656.37
 57.57    1380.00
 57.67    1106.00
 57.77     979.00
 57.87     805.63
 57.97     726.00
 58.07     799.00
 58.17     744.00
 58.27     729.00
 58.37     654.99
 58.47     822.00
 58.57     777.56
 58.67     920.58
 58.77     942.00
 58.87    1062.00
 58.97    1058.94
 59.07    1202.72
 59.17    1237.83
 59.27    1268.59
 59.37    1276.00
 59.47    1272.00
 59.57    1278.00
 59.67    1186.53
 59.77    1128.48
 59.87    1098.03
 59.97    1198.30
 60.07    1314.00
 60.17    1417.00
 60.27    1499.02
 60.37    1546.79
 60.47    1594.03
 60.57    1490.00
 60.67    1274.50
 60.77    1183.22
 60.87    1059.00
 60.97     928.00
 61.07     849.00
 61.17     754.00
 61.27     701.39
 61.37     710.00
 61.47     669.00
 61.57     731.00
 61.67     762.72
 61.77     742.00
 61.87     903.00
 61.97     961.00
 62.07    1107.00
 62.17    1142.00
 62.27    1253.00
 62.37    1287.00
 62.47    1297.00
 62.57    1288.69
 62.67    1140.00
 62.77     952.00
 62.87     915.00
 62.97     804.22
 63.07     659.00
 63.17     686.00
 63.27     640.22
 63.37     606.00
 63.47     588.57
 63.57     567.16
 63.67     571.98
 63.77     590.30
 63.87     579.00
 63.97     670.00
 64.07     660.00
 64.17     717.15
 64.27     664.80
 64.37     812.00
 64.47     781.00
 64.57     916.00
 64.67     978.00
 64.77     997.00
 64.87    1030.80
 64.97    1089.00
 65.07    1021.20
 65.17     976.00
 65.27     884.00
 65.37     788.11
 65.47     814.90
 65.57     700.00
 65.67     656.00
 65.77     673.00
 65.87     615.00
 65.97     628.00
 66.07     563.00
 66.17     556.00
 66.27     604.28
 66.37     559.00
 66.47     572.00
 66.57     584.00
 66.67     557.00
 66.77     577.11
 66.87     592.00
 66.97     603.76
 67.07     582.89
 67.17     685.46
 67.27     627.00
 67.37     800.05
 67.47     853.78
 67.57     962.00
 67.67    1035.00
 67.77    1328.98
 67.87    1511.00
 67.97    1755.35
 68.07    2080.23
 68.17    2131.00
 68.27    2319.00
 68.37    2388.00
 68.47    2207.00
 68.57    1982.28
 68.67    1859.00
 68.77    1609.00
 68.87    1384.00
 68.97    1195.61
 69.07    1003.00
 69.17     853.54
 69.27     824.00
 69.37     727.00
 69.47     716.00
 69.57     595.67
 69.67     630.68
 69.77     584.00
 69.87     624.00
 69.97     537.98
 70.07     576.00
 70.17     611.00
 70.27     593.00
 70.37     598.00
 70.47     571.00
 70.57     571.57
 70.67     562.88
 70.77     613.25
 70.87     584.00
 70.97     635.00
 71.07     619.77
 71.17     609.52
 71.27     729.23
 71.37     719.00
 71.47     814.00
 71.57     961.00
 71.67    1066.00
 71.77    1239.46
 71.87    1300.00
 71.97    1487.78
 72.07    1639.58
 72.17    1730.00
 72.27    1851.00
 72.37    1831.00
 72.47    1769.00
 72.57    1601.77
 72.67    1587.00
 72.77    1316.00
 72.87    1195.00
 72.97    1021.00
 73.07     941.98
 73.17     850.00
 73.27     725.95
 73.37     696.59
 73.47     655.10
 73.57     645.00
 73.67     606.00
 73.77     606.00
 73.87     630.00
 73.97     602.00
 74.07     599.00
 74.17     538.35
 74.27     511.41
 74.37     526.73
 74.47     503.56
 74.57     585.00
 74.67     647.00
 74.77     529.12
 74.87     670.00
 74.97     631.00
 75.07     681.00
 75.17     572.00
 75.27     615.00
 75.37     620.00
 75.47     590.00
 75.57     522.73
 75.67     581.11
 75.77     564.00
 75.87     509.54
 75.97     567.00
 76.07     559.00
 76.17     608.00
 76.27     626.00
 76.37     626.35
 76.47     682.00
 76.57     674.00
 76.67     710.00
 76.77     721.00
 76.87     660.00
 76.97     715.00
 77.07     630.82
 77.17     635.00
 77.27     610.23
 77.37     594.00
 77.47     591.00
 77.57     551.00
 77.67     584.42
 77.77     567.00
 77.87     491.00
 77.97     531.00
 78.07     525.00
 78.17     529.00
 78.27     544.00
 78.37     551.00
 78.47     493.00
 78.57     509.00
 78.67     533.00
 78.77     545.24
 78.87     546.70
 78.97     497.24
 79.07     510.00
 79.17     548.20
 79.27     487.00
 79.37     542.72
 79.47     542.04
 79.57     508.00
 79.67     482.00
 79.77     532.00
 79.87     571.00
 79.97     529.00
 80.07     539.00
 80.17     541.09
 80.27     530.00
 80.37     545.00
 80.47     603.82
 80.57     585.00
 80.67     568.00
 80.77     570.75
 80.87     664.61
 80.97     590.15
 81.07     637.00
 81.17     617.00
 81.27     686.00
 81.37     701.20
 81.47     722.13
 81.57     726.00
 81.67     732.00
 81.77     802.00
 81.87     789.08
 81.97     754.00
 82.07     734.02
 82.17     761.50
 82.27     698.00
 82.37     723.40
 82.47     652.00
 82.57     625.00
 82.67     606.09
 82.77     570.00
 82.87     566.63
 82.97     591.40
 83.07     581.10
 83.17     540.00
 83.27     512.00
 83.37     532.00
 83.47     515.00
 83.57     536.00
 83.67     569.22
 83.77     527.00
 83.87     540.62
 83.97     545.31
 84.07     565.20
 84.17     531.00
 84.27     548.00
 84.37     556.00
 84.47     567.00
 84.57     552.58
 84.67     516.91
 84.77     556.00
 84.87     518.00
 84.97     571.00
 85.07     541.00
 85.17     504.00
 85.27     540.11
 85.37     547.62
 85.47     505.87
 85.57     520.00
 85.67     495.00
 85.77     476.04
 85.87     539.15
 85.97     519.00
 86.07     492.00
 86.17     538.00
 86.27     513.00
 86.37     502.00
 86.47     552.00
 86.57     486.62
 86.67     561.15
 86.77     545.91
 86.87     506.51
 86.97     519.77
 87.07     519.00
 87.17     602.00
 87.27     626.69
 87.37     614.00
 87.47     615.55
 87.57     584.00
 87.67     617.00
 87.77     631.87
 87.87     612.00
 87.97     564.00
 88.07     592.00
 88.17     573.00
 88.27     549.09
 88.37     625.08
 88.47     536.00
 88.57     582.50
 88.67     616.00
 88.77     575.00
 88.87     541.00
 88.97     561.69
 89.07     593.14
 89.17     535.09
 89.27     546.88
 89.37     570.00
 89.47     638.00
 89.57     569.02
 89.67     583.00
 89.77     582.00
 89.87     587.00
 89.97     561.00
 90.07     568.00
 90.17     558.00
 90.27     541.00
 90.37     513.30
 90.47     526.00
 90.57     519.48
 90.67     545.67
 90.77     507.00
 90.87     539.00
 90.97     482.00
 91.07     510.00
 91.17     482.69
 91.27     489.00
 91.37     514.00
 91.47     462.00
 91.57     494.70
 91.67     523.00
 91.77     480.40
 91.87     507.00
 91.97     539.64
 92.07     528.77
 92.17     526.26
 92.27     516.97
 92.37     503.06
 92.47     538.00
 92.57     593.00
 92.67     573.00
 92.77     575.00
 92.87     626.36
 92.97     620.00
 93.07     625.00
 93.17     660.00
 93.27     640.10
 93.37     721.00
 93.47     688.93
 93.57     709.92
 93.67     747.00
 93.77     770.02
 93.87     757.00
 93.97     735.97
 94.07     863.69
 94.17     855.00
 94.27     808.00
 94.37     806.43
 94.47     824.00
 94.57     864.00
 94.67     876.00
 94.77     901.00
 94.87     908.28
 94.97     925.86
 95.07     895.48
 95.17     946.00
 95.27     904.00
 95.37     920.00
 95.47     840.00
 95.57     862.00
 95.67     837.00
 95.77     786.00
 95.87     748.92
 95.97     749.00
 96.07     726.63
 96.17     660.92
 96.27     752.50
 96.37     680.00
 96.47     694.00
 96.57     698.00
 96.67     795.00
 96.77     832.00
 96.87     927.00
 96.97     943.00
 97.07     953.00
 97.17    1049.00
 97.27    1058.00
 97.37    1172.00
 97.47    1187.15
 97.57    1255.62
 97.67    1394.93
 97.77    1349.00
 97.87    1370.58
 97.97    1463.00
 98.07    1485.00
 98.17    1368.37
 98.27    1360.00
 98.37    1329.28
 98.47    1309.78
 98.57    1149.00
 98.67    1171.85
 98.77    1030.00
 98.87     988.00
 98.97     942.00
 99.07     856.00
 99.17     857.33
 99.27     907.00
 99.37     918.00
 99.47     884.97
 99.57     967.00
 99.67     944.00
 99.77    1049.00
 99.87    1066.00
 99.97    1213.12
100.07    1201.00
100.17    1259.99
100.27    1372.00
100.37    1565.20
100.47    1564.00
100.57    1735.00
100.67    1740.00
100.77    1892.17
100.87    1962.46
100.97    1917.00
101.07    1959.00
101.17    1966.00
101.27    1984.15
101.37    1871.00
101.47    1906.00
101.57    1812.00
101.67    1804.00
101.77    1721.00
101.87    1602.00
101.97    1624.00
102.07    1431.00
102.17    1418.00
102.27    1411.00
102.37    1243.00
102.47    1332.43
102.57    1273.00
102.67    1161.00
102.77    1232.13
102.87    1195.09
102.97    1061.98
103.07    1158.12
103.17    1095.00
103.27    1100.73
103.37    1011.00
103.47     917.96
103.57     927.42
103.67     882.00
103.77     900.00
103.87     858.88
103.97     788.00
104.07     779.00
104.17     730.00
104.27     691.51
104.37     628.72
104.47     627.00
104.57     626.18
104.67     570.00
104.77     632.00
104.87     594.00
104.97     547.22
105.07     544.00
105.17     568.00
105.27     513.00
105.37     576.00
105.47     577.00
105.57     587.00
105.67     558.00
105.77     546.00
105.87     527.21
105.97     567.00
106.07     526.00
106.17     534.00
106.27     577.00
106.37     525.81
106.47     565.21
106.57     563.58
106.67     585.75
106.77     657.17
106.87     574.00
106.97     639.00
107.07     643.00
107.17     650.00
107.27     639.00
107.37     650.00
107.47     610.00
107.57     661.00
107.67     657.00
107.77     678.00
107.87     710.00
107.97     729.87
108.07     673.00
108.17     682.00
108.27     659.00
108.37     658.00
108.47     668.00
108.57     644.00
108.67     669.27
108.77     686.00
108.87     685.00
108.97     675.00
109.07     653.69
109.17     659.11
109.27     681.00
109.37     680.00
109.47     681.98
109.57     644.00
109.67     669.00
109.77     701.00
109.87     657.00
109.97     633.00
110.07     674.00
110.17     651.00
110.27     615.00
110.37     621.00
110.47     591.15
110.57     605.13
110.67     593.00
110.77     606.00
110.87     615.96
110.97     630.00
111.07     557.84
111.17     578.31
111.27     555.00
111.37     527.09
111.47     570.09
111.57     490.11
111.67     497.00
111.77     548.00
111.87     561.00
111.97     547.00
112.07     546.00
112.17     590.00
112.27     574.00
112.37     551.21
112.47     521.85
112.57     548.00
112.67     570.00
112.77     572.00
112.87     511.73
112.97     586.00
113.07     596.28
113.17     567.00
113.27     565.00
113.37     597.00
113.47     616.00
113.57     654.29
113.67     633.00
113.77     671.00
113.87     632.00
113.97     640.00
114.07     633.25
114.17     691.00
114.27     741.00
114.37     784.38
114.47     800.00
114.57     907.90
114.67     889.33
114.77    1037.00
114.87    1172.00
114.97    1253.00
115.07    1357.00
115.17    1574.00
115.27    1843.00
115.37    2113.00
115.47    2202.90
115.57    2313.35
115.67    2756.00
115.77    3049.00
115.87    3337.00
115.97    3619.11
116.07    4122.00
116.17    4384.00
116.27    4748.00
116.37    5285.27
116.47    5474.00
116.57    5853.00
116.67    6288.52
116.77    6399.00
116.87    6617.13
116.97    6984.10
117.07    7064.81
117.17    7051.00
117.27    6831.00
117.37    6646.00
117.47    6834.07
117.57    6463.82
117.67    6171.02
117.77    5689.00
117.87    5286.00
117.97    5223.06
118.07    4810.75
118.17    4536.71
118.27    4182.00
118.37    3840.43
118.47    3473.00
118.57    3085.00
118.67    2786.90
118.77    2495.00
118.87    2229.81
118.97    1921.00
119.07    1753.00
119.17    1728.05
119.27    1447.12
119.37    1323.00
119.47    1170.00
119.57    1081.23
119.67    1039.00
119.77    1050.01
119.87     895.41
119.97     870.00
120.07     763.35
120.17     754.00
120.27     714.05
120.37     704.00
120.47     703.00
120.57     686.00
120.67     637.00
120.77     645.00
120.87     609.00
120.97     616.00
121.07     666.02
121.17     640.88
121.27     610.94
121.37     638.45
121.47     615.27
121.57     588.00
121.67     617.30
121.77     648.00
121.87     602.13
121.97     605.00
122.07     562.00
122.17     620.08
122.27     575.52
122.37     568.00
122.47     621.48
122.57     584.58
122.67     652.10
122.77     631.00
122.87     601.63
122.97     646.00
123.07     647.59
123.17     631.74
123.27     575.00
123.37     581.21
123.47     647.57
123.57     671.09
123.67     680.68
123.77     667.00
123.87     659.00
123.97     620.61
124.07     655.00
124.17     576.98
124.27     643.00
124.37     606.00
124.47     581.48
124.57     577.00
124.67     588.00
124.77     694.00
124.87     589.99
124.97     569.71
