  9.97     557.00
 10.07     579.00
 10.17     608.00
 10.27     563.00
 10.37     545.98
 10.47     599.00
 10.57     561.18
 10.67     591.00
 10.77     565.00
 10.87     557.00
 10.97     596.08
 11.07     569.35
 11.17     579.00
 11.27     572.44
 11.37     556.00
 11.47     590.98
 11.57     547.11
 11.67     586.58
 11.77     591.68
 11.87     611.50
 11.97     678.01
 12.07     684.89
 12.17     662.00
 12.27     670.15
 12.37     719.11
 12.47     668.00
 12.57     572.00
 12.67     563.00
 12.77     574.23
 12.87     606.24
 12.97     561.00
 13.07     530.00
 13.17     540.87
 13.27     594.92
 13.37     562.00
 13.47     550.00
 13.57     539.00
 13.67     572.00
 13.77     562.00
 13.87     558.00
 13.97     603.44
 14.07     566.52
 14.17     554.00
 14.27     531.00
 14.37     518.00
 14.47     576.00
 14.57     545.17
 14.67     563.00
 14.77     571.00
 14.87     543.00
 14.97     537.00
 15.07     601.00
 15.17     610.99
 15.27     596.62
 15.37     577.68
 15.47     545.00
 15.57     526.00
 15.67     608.48
 15.77     609.00
 15.87     549.00
 15.97     567.00
 16.07     546.00
 16.17     563.00
 16.27     586.92
 16.37     551.00
 16.47     550.00
 16.57     572.00
 16.67     574.75
 16.77     563.00
 16.87     562.00
 16.97     588.08
 17.07     554.00
 17.17     549.00
 17.27     554.00
 17.37     517.16
 17.47     531.98
 17.57     611.00
 17.67     599.43
 17.77     564.00
 17.87     604.35
 17.97     564.00
 18.07     587.00
 18.17     591.77
 18.27     569.00
 18.37     537.74
 18.47     602.57
 18.57     589.00
 18.67     568.33
 18.77     528.59
 18.87     553.00
 18.97     551.00
 19.07     585.00
 19.17     511.81
 19.27     526.00
 19.37     528.53
 19.47     560.00
 19.57     601.00
 19.67     595.54
 19.77     554.00
 19.87     595.54
 19.97     550.58
 20.07     531.80
 20.17     550.00
 20.27     589.00
 20.37     528.00
 20.47     606.38
 20.57     540.00
 20.67     567.00
 20.77     574.00
 20.87     569.53
 20.97     546.00
 21.07     560.00
 21.17     540.00
 21.27     587.93
 21.37     525.00
 21.47     545.00
 21.57     513.00
 21.67     539.00
 21.77     495.00
 21.87     563.54
 21.97     556.00
 22.07     553.31
 22.17     535.00
 22.27     536.93
 22.37     525.33
 22.47     559.00
 22.57     580.00
 22.67     516.52
 22.77     524.31
 22.87     513.97
 22.97     532.63
 23.07     550.00
 23.17     524.00
 23.27     535.00
 23.37     556.72
 23.47     541.00
 23.57     560.11
 23.67     540.50
 23.77     582.00
 23.87     589.91
 23.97     561.87
 24.07     580.38
 24.17     603.00
 24.27     550.00
 24.37     584.00
 24.47     598.00
 24.57     658.00
 24.67     653.00
 24.77     632.00
 24.87     589.00
 24.97     678.00
 25.07     624.00
 25.17     604.00
 25.27     587.16
 25.37     555.00
 25.47     561.00
 25.57     593.54
 25.67     557.50
 25.77     562.00
 25.87     547.00
 25.97     580.00
 26.07     559.00
 26.17     567.00
 26.27     553.00
 26.37     580.00
 26.47     536.00
 26.57     542.00
 26.67     541.00
 26.77     562.08
 26.87     549.59
 26.97     544.00
 27.07     573.00
 27.17     559.00
 27.27     545.00
 27.37     570.00
 27.47     538.00
 27.57     518.07
 27.67     611.00
 27.77     591.00
 27.87     636.26
 27.97     696.00
 28.07     796.00
 28.17     951.00
 28.27     950.67
 28.37     974.63
 28.47     819.02
 28.57     716.00
 28.67     698.00
 28.77     766.00
 28.87     755.00
 28.97     767.00
 29.07     777.21
 29.17     676.35
 29.27     702.88
 29.37     588.24
 29.47     592.86
 29.57     609.32
 29.67     624.00
 29.77     575.00
 29.87     617.19
 29.97     558.24
 30.07     563.00
 30.17     524.00
 30.27     577.39
 30.37     543.00
 30.47     576.00
 30.57     565.00
 30.67     581.67
 30.77     594.00
 30.87     653.00
 30.97     667.08
 31.07     602.00
 31.17     550.00
 31.27     608.72
 31.37     525.66
 31.47     573.77
 31.57     531.00
 31.67     561.00
 31.77     605.00
 31.87     549.00
 31.97     566.00
 32.07     544.84
 32.17     547.00
 32.27     581.00
 32.37     572.00
 32.47     525.00
 32.57     539.00
 32.67     543.00
 32.77     576.71
 32.87     548.00
 32.97     532.00
 33.07     543.00
 33.17     541.00
 33.27     552.00
 33.37     571.96
 33.47     512.53
 33.57     569.00
 33.67     619.00
 33.77     779.00
 33.87     879.00
 33.97    1063.00
 34.07    1069.00
 34.17    1060.00
 34.27     888.00
 34.37     758.00
 34.47     656.00
 34.57     581.00
 34.67     529.00
 34.77     542.00
 34.87     540.00
 34.97     552.00
 35.07     573.83
 35.17     522.54
 35.27     547.48
 35.37     502.00
 35.47     509.00
 35.57     539.00
 35.67     525.00
 35.77     493.00
 35.87     534.00
 35.97     521.77
 36.07     512.00
 36.17     509.57
 36.27     496.00
 36.37     484.00
 36.47     514.00
 36.57     486.00
 36.67     474.00
 36.77     519.00
 36.87     543.00
 36.97     563.00
 37.07     555.20
 37.17     510.00
 37.27     518.20
 37.37     561.00
 37.47     540.00
 37.57     559.09
 37.67     516.00
 37.77     525.00
 37.87     526.00
 37.97     539.00
 38.07     482.00
 38.17     520.67
 38.27     542.00
 38.37     484.29
 38.47     510.00
 38.57     543.54
 38.67     533.54
 38.77     509.00
 38.87     497.00
 38.97     484.00
 39.07     479.96
 39.17     500.39
 39.27     486.00
 39.37     522.00
 39.47     501.00
 39.57     516.00
 39.67     494.00
 39.77     493.33
 39.87     539.00
 39.97     483.86
 40.07     552.23
 40.17     487.40
 40.27     518.00
 40.37     545.80
 40.47     499.72
 40.57     525.00
 40.67     501.00
 40.77     515.65
 40.87     515.00
 40.97     515.00
 41.07     506.00
 41.17     525.23
 41.27     541.78
 41.37     503.00
 41.47     510.00
 41.57     488.00
 41.67     510.00
 41.77     523.00
 41.87     497.00
 41.97     507.00
 42.07     473.75
 42.17     519.00
 42.27     541.00
 42.37     579.00
 42.47     573.00
 42.57     619.00
 42.67     566.00
 42.77     565.00
 42.87     599.00
 42.97     527.00
 43.07     526.87
 43.17     527.00
 43.27     545.00
 43.37     475.00
 43.47     492.41
 43.57     536.49
 43.67     507.00
 43.77     477.00
 43.87     500.00
 43.97     535.45
 44.07     521.00
 44.17     495.00
 44.27     482.00
 44.37     496.00
 44.47     519.00
 44.57     502.00
 44.67     498.00
 44.77     500.00
 44.87     484.12
 44.97     496.00
 45.07     497.75
 45.17     512.00
 45.27     525.80
 45.37     519.00
 45.47     529.00
 45.57     493.00
 45.67     546.97
 45.77     550.00
 45.87     508.11
 45.97     490.00
 46.07     520.07
 46.17     470.67
 46.27     521.00
 46.37     518.00
 46.47     531.00
 46.57     494.00
 46.67     483.00
 46.77     516.07
 46.87     511.00
 46.97     515.80
 47.07     495.25
 47.17     542.00
 47.27     554.00
 47.37     485.34
 47.47     523.00
 47.57     592.37
 47.67     596.95
 47.77     627.01
 47.87     620.00
 47.97     605.11
 48.07     593.00
 48.17     574.00
 48.27     524.00
 48.37     520.85
 48.47     503.00
 48.57     573.00
 48.67     489.00
 48.77     543.00
 48.87     543.00
 48.97     569.00
 49.07     579.00
 49.17     594.00
 49.27     634.00
 49.37     695.00
 49.47     721.00
 49.57     750.00
 49.67     955.00
 49.77    1131.98
 49.87    1485.82
 49.97    1854.56
 50.07    2306.00
 50.17    2536.52
 50.27    2484.00
 50.37    2325.00
 50.47    1833.00
 50.57    1383.00
 50.67    1093.00
 50.77     827.00
 50.87     685.00
 50.97     639.00
 51.07     663.43
 51.17     593.00
 51.27     581.00
 51.37     576.00
 51.47     602.00
 51.57     565.27
 51.67     519.12
 51.77     511.88
 51.87     512.00
 51.97     556.55
 52.07     532.00
 52.17     574.00
 52.27     585.00
 52.37     571.00
 52.47     553.00
 52.57     568.40
 52.67     566.00
 52.77     585.98
 52.87     662.10
 52.97     639.00
 53.07     832.00
 53.17     848.06
 53.27    1092.00
 53.37    1124.00
 53.47    1238.00
 53.57    1250.66
 53.67    1086.00
 53.77    1038.61
 53.87     863.00
 53.97     734.00
 54.07     644.00
 54.17     640.00
 54.27     623.60
 54.37     577.00
 54.47     518.41
 54.57     554.00
 54.67     540.11
 54.77     523.62
 54.87     586.04
 54.97     510.74
 55.07     588.85
 55.17     624.00
 55.27     567.00
 55.37     539.60
 55.47     552.45
 55.57     524.64
 55.67     519.84
 55.77     596.00
 55.87     582.00
 55.97     603.45
 56.07     647.00
 56.17     787.55
 56.27     876.00
 56.37    1122.00
 56.47    1424.00
 56.57    1818.00
 56.67    2242.24
 56.77    2461.77
 56.87    2689.95
 56.97    2605.77
 57.07    2391.00
 57.17    1957.52
 57.27    1642.00
 57.37    1302.00
 57.47    1024.00
 57.57     895.00
 57.67     777.51
 57.77     708.08
 57.87     702.00
 57.97     621.00
 58.07     694.77
 58.17     667.98
 58.27     713.00
 58.37     831.43
 58.47     909.00
 58.57    1164.60
 58.67    1275.00
 58.77    1379.00
 58.87    1453.59
 58.97    1497.02
 59.07    1607.00
 59.17    1576.00
 59.27    1466.22
 59.37    1365.00
 59.47    1200.69
 59.57    1207.00
 59.67    1096.18
 59.77    1175.00
 59.87    1207.00
 59.97    1356.00
 60.07    1404.97
 60.17    1513.00
 60.27    1482.62
 60.37    1466.00
 60.47    1315.73
 60.57    1306.00
 60.67    1054.00
 60.77     957.00
 60.87     804.40
 60.97     710.00
 61.07     615.03
 61.17     590.53
 61.27     589.24
 61.37     624.68
 61.47     692.11
 61.57     772.00
 61.67     864.00
 61.77     918.00
 61.87    1073.00
 61.97    1273.93
 62.07    1405.00
 62.17    1385.63
 62.27    1291.00
 62.37    1318.00
 62.47    1241.00
 62.57    1012.00
 62.67     913.76
 62.77     731.00
 62.87     676.85
 62.97     647.06
 63.07     558.00
 63.17     556.71
 63.27     592.00
 63.37     555.00
 63.47     605.86
 63.57     567.00
 63.67     577.03
 63.77     588.00
 63.87     630.00
 63.97     652.00
 64.07     639.11
 64.17     776.00
 64.27     817.00
 64.37     903.00
 64.47     935.00
 64.57    1053.00
 64.67    1011.00
 64.77     968.05
 64.87     924.74
 64.97     930.04
 65.07     843.53
 65.17     785.00
 65.27     697.00
 65.37     694.00
 65.47     661.38
 65.57     624.58
 65.67     589.00
 65.77     587.00
 65.87     574.00
 65.97     550.00
 66.07     600.00
 66.17     605.11
 66.27     576.00
 66.37     548.95
 66.47     563.75
 66.57     556.00
 66.67     535.00
 66.77     623.85
 66.87     576.80
 66.97     619.00
 67.07     599.00
 67.17     675.00
 67.27     737.80
 67.37     925.60
 67.47    1086.00
 67.57    1309.27
 67.67    1501.00
 67.77    1736.00
 67.87    2022.00
 67.97    2197.00
 68.07    2519.00
 68.17    2399.00
 68.27    2230.16
 68.37    2051.00
 68.47    1945.00
 68.57    1430.61
 68.67    1294.77
 68.77    1058.90
 68.87     823.31
 68.97     770.00
 69.07     749.00
 69.17     647.00
 69.27     611.00
 69.37     549.46
 69.47     571.26
 69.57     600.00
 69.67     543.00
 69.77     550.00
 69.87     564.00
 69.97     593.00
 70.07     596.00
 70.17     587.00
 70.27     552.00
 70.37     597.00
 70.47     607.79
 70.57     614.91
 70.67     617.00
 70.77     621.01
 70.87     602.51
 70.97     674.71
 71.07     685.02
 71.17     749.00
 71.27     796.00
 71.37     952.00
 71.47    1075.00
 71.57    1228.00
 71.67    1473.81
 71.77    1647.50
 71.87    1829.00
 71.97    1944.00
 72.07    1909.00
 72.17    1930.00
 72.27    1913.00
 72.37    1570.24
 72.47    1482.00
 72.57    1391.56
 72.67    1102.00
 72.77    1157.54
 72.87    1002.45
 72.97     864.00
 73.07     827.19
 73.17     830.73
 73.27     720.43
 73.37     724.74
 73.47     638.24
 73.57     616.00
 73.67     662.26
 73.77     575.41
 73.87     618.53
 73.97     565.41
 74.07     569.49
 74.17     537.19
 74.27     596.00
 74.37     527.72
 74.47     585.68
 74.57     557.00
 74.67     587.00
 74.77     607.00
 74.87     663.00
 74.97     596.00
 75.07     605.00
 75.17     568.00
 75.27     583.00
 75.37     566.00
 75.47     548.00
 75.57     589.03
 75.67     569.00
 75.77     592.00
 75.87     636.78
 75.97     609.00
 76.07     615.36
 76.17     667.40
 76.27     654.00
 76.37     700.00
 76.47     718.45
 76.57     730.26
 76.67     685.00
 76.77     683.00
 76.87     627.00
 76.97     638.00
 77.07     607.05
 77.17     584.38
 77.27     593.00
 77.37     584.00
 77.47     570.00
 77.57     529.82
 77.67     556.00
 77.77     506.00
 77.87     488.59
 77.97     504.00
 78.07     492.70
 78.17     508.00
 78.27     536.51
 78.37     574.42
 78.47     537.60
 78.57     538.00
 78.67     486.35
 78.77     510.00
 78.87     533.00
 78.97     488.00
 79.07     506.00
 79.17     512.46
 79.27     530.00
 79.37     559.76
 79.47     513.00
 79.57     536.00
 79.67     514.00
 79.77     530.00
 79.87     533.00
 79.97     530.53
 80.07     584.20
 80.17     551.00
 80.27     537.00
 80.37     572.97
 80.47     566.00
 80.57     586.00
 80.67     625.00
 80.77     630.00
 80.87     676.08
 80.97     738.00
 81.07     763.30
 81.17     775.69
 81.27     762.00
 81.37     778.00
 81.47     815.00
 81.57     767.00
 81.67     784.16
 81.77     721.00
 81.87     735.00
 81.97     726.00
 82.07     690.52
 82.17     677.01
 82.27     600.00
 82.37     595.00
 82.47     607.91
 82.57     606.81
 82.67     557.00
 82.77     552.00
 82.87     593.00
 82.97     567.00
 83.07     598.00
 83.17     518.00
 83.27     566.00
 83.37     561.12
 83.47     522.00
 83.57     554.48
 83.67     539.00
 83.77     622.63
 83.87     550.77
 83.97     566.00
 84.07     548.00
 84.17     592.00
 84.27     554.00
 84.37     587.00
 84.47     562.00
 84.57     561.00
 84.67     545.64
 84.77     539.00
 84.87     511.00
 84.97     491.00
 85.07     494.00
 85.17     516.00
 85.27     547.00
 85.37     503.00
 85.47     513.00
 85.57     544.19
 85.67     487.00
 85.77     514.00
 85.87     521.00
 85.97     517.00
 86.07     487.80
 86.17     508.00
 86.27     503.00
 86.37     583.00
 86.47     539.00
 86.57     538.57
 86.67     520.16
 86.77     551.36
 86.87     586.00
 86.97     549.86
 87.07     625.36
 87.17     621.00
 87.27     634.00
 87.37     603.00
 87.47     699.00
 87.57     670.00
 87.67     623.00
 87.77     633.42
 87.87     595.54
 87.97     608.00
 88.07     653.00
 88.17     617.00
 88.27     572.09
 88.37     616.00
 88.47     596.00
 88.57     528.26
 88.67     533.12
 88.77     622.35
 88.87     624.70
 88.97     612.00
 89.07     584.58
 89.17     596.88
 89.27     646.93
 89.37     620.00
 89.47     635.00
 89.57     612.19
 89.67     563.00
 89.77     575.00
 89.87     588.60
 89.97     565.00
 90.07     549.00
 90.17     548.00
 90.27     525.00
 90.37     496.00
 90.47     565.00
 90.57     563.47
 90.67     531.00
 90.77     541.00
 90.87     533.00
 90.97     552.00
 91.07     525.00
 91.17     503.00
 91.27     553.00
 91.37     568.56
 91.47     490.07
 91.57     516.91
 91.67     538.42
 91.77     547.00
 91.87     535.00
 91.97     578.00
 92.07     591.34
 92.17     547.00
 92.27     567.41
 92.37     612.00
 92.47     593.00
 92.57     612.89
 92.67     651.00
 92.77     655.08
 92.87     762.33
 92.97     747.00
 93.07     765.99
 93.17     799.21
 93.27     820.85
 93.37     807.00
 93.47     791.00
 93.57     817.00
 93.67     759.79
 93.77     820.00
 93.87     787.31
 93.97     810.21
 94.07     880.49
 94.17     886.00
 94.27     861.34
 94.37     822.77
 94.47     852.11
 94.57     834.20
 94.67     872.00
 94.77     947.00
 94.87     867.00
 94.97     925.00
 95.07     955.00
 95.17     802.27
 95.27     806.00
 95.37     808.00
 95.47     742.00
 95.57     815.00
 95.67     719.41
 95.77     665.23
 95.87     689.00
 95.97     685.00
 96.07     717.42
 96.17     697.00
 96.27     710.00
 96.37     755.00
 96.47     779.53
 96.57     843.00
 96.67     955.73
 96.77     970.00
 96.87    1024.00
 96.97    1203.00
 97.07    1234.27
 97.17    1328.72
 97.27    1362.00
 97.37    1414.32
 97.47    1467.72
 97.57    1445.00
 97.67    1405.00
 97.77    1358.00
 97.87    1359.00
 97.97    1302.89
 98.07    1201.00
 98.17    1191.82
 98.27    1045.00
 98.37    1019.21
 98.47     955.00
 98.57     949.17
 98.67     850.00
 98.77     811.00
 98.87     819.00
 98.97     756.00
 99.07     760.09
 99.17     811.00
 99.27     854.11
 99.37     972.00
 99.47    1044.00
 99.57    1140.00
 99.67    1215.00
 99.77    1245.00
 99.87    1390.00
 99.97    1493.00
100.07    1673.00
100.17    1755.00
100.27    1821.34
100.37    1964.00
100.47    1977.00
100.57    2201.00
100.67    2168.22
100.77    2035.00
100.87    2064.00
100.97    2055.00
101.07    2101.00
101.17    1978.00
101.27    1828.00
101.37    1744.00
101.47    1586.28
101.57    1449.00
101.67    1458.57
101.77    1296.73
101.87    1350.26
101.97    1281.94
102.07    1203.13
102.17    1191.62
102.27    1073.00
102.37    1057.00
102.47    1151.98
102.57    1021.51
102.67    1063.62
102.77    1031.52
102.87    1050.79
102.97     969.00
103.07     933.00
103.17     885.23
103.27     804.00
103.37     880.00
103.47     785.43
103.57     701.16
103.67     720.00
103.77     700.75
103.87     661.00
103.97     623.00
104.07     617.00
104.17     569.82
104.27     550.00
104.37     546.00
104.47     576.94
104.57     597.00
104.67     549.00
104.77     553.00
104.87     526.95
104.97     574.00
105.07     549.00
105.17     537.00
105.27     544.00
105.37     516.00
105.47     532.00
105.57     529.00
105.67     581.00
105.77     531.74
105.87     545.00
105.97     562.00
106.07     576.00
106.17     608.78
106.27     573.73
106.37     593.00
106.47     582.10
106.57     607.00
106.67     652.88
106.77     659.51
106.87     612.00
106.97     645.63
107.07     653.00
107.17     660.00
107.27     701.44
107.37     668.36
107.47     696.00
107.57     648.00
107.67     692.00
107.77     726.62
107.87     703.00
107.97     691.00
108.07     705.00
108.17     644.00
108.27     680.00
108.37     693.40
108.47     735.43
108.57     687.00
108.67     653.68
108.77     693.00
108.87     739.54
108.97     641.00
109.07     687.00
109.17     621.00
109.27     703.86
109.37     670.00
109.47     666.95
109.57     623.00
109.67     598.02
109.77     584.70
109.87     608.36
109.97     591.00
110.07     596.97
110.17     602.00
110.27     611.00
110.37     597.31
110.47     561.00
110.57     595.00
110.67     572.00
110.77     568.32
110.87     549.00
110.97     508.00
111.07     553.00
111.17     510.00
111.27     500.73
111.37     555.00
111.47     525.01
111.57     563.73
111.67     577.00
111.77     544.91
111.87     564.00
111.97     567.00
112.07     586.00
112.17     506.00
112.27     550.00
112.37     549.00
112.47     604.00
112.57     650.00
112.67     605.00
112.77     600.14
112.87     651.00
112.97     677.00
113.07     680.66
113.17     692.00
113.27     715.00
113.37     754.22
113.47     729.73
113.57     825.00
113.67     807.84
113.77     961.00
113.87     913.52
113.97    1046.64
114.07    1028.00
114.17    1077.00
114.27    1205.26
114.37    1257.00
114.47    1319.00
114.57    1485.00
114.67    1589.01
114.77    1703.70
114.87    1848.00
114.97    2171.00
115.07    2261.00
115.17    2624.00
115.27    2923.00
115.37    3232.16
115.47    3367.57
115.57    3698.00
115.67    4103.00
115.77    4669.48
115.87    4802.00
115.97    5292.00
116.07    5461.00
116.17    6126.00
116.27    6375.00
116.37    6579.00
116.47    6751.73
116.57    6950.00
116.67    6976.00
116.77    6814.20
116.87    6788.36
116.97    6564.80
117.07    6564.93
117.17    6094.00
117.27    5692.71
117.37    5155.00
117.47    5052.27
117.57    4672.00
117.67    4290.00
117.77    3935.00
117.87    3660.00
117.97    3241.39
118.07    2975.00
118.17    2611.00
118.27    2214.82
118.37    1984.60
118.47    1751.00
118.57    1530.00
118.67    1378.00
118.77    1199.00
118.87    1127.00
118.97    1041.00
119.07     930.02
119.17     910.20
119.27     859.31
119.37     784.00
119.47     743.00
119.57     627.00
119.67     645.00
119.77     665.00
119.87     642.00
119.97     658.12
120.07     642.34
120.17     635.00
120.27     558.71
120.37     565.00
120.47     556.00
120.57     586.81
120.67     550.00
120.77     553.00
120.87     548.74
120.97     560.00
121.07     584.65
121.17     568.00
121.27     577.00
121.37     537.04
121.47     590.50
121.57     623.61
121.67     562.00
121.77     578.07
121.87     586.00
121.97     602.00
122.07     642.00
122.17     631.00
122.27     612.28
122.37     649.00
122.47     585.00
122.57     612.71
122.67     652.00
122.77     632.00
122.87     646.00
122.97     669.93
123.07     640.00
123.17     623.36
123.27     649.00
123.37     665.00
123.47     647.00
123.57     671.00
123.67     611.00
123.77     638.00
123.87     627.68
123.97     668.20
124.07     614.00
124.17     576.10
124.27     630.78
124.37     637.29
124.47     625.00
124.57     571.00
124.67     569.00
124.77     602.37
124.87     577.00
124.97     571.00
