  9.97     756.00
 10.07     732.34
 10.17     708.51
 10.27     711.14
 10.37     752.00
 10.47     745.92
 10.57     713.17
 10.67     733.00
 10.77     659.00
 10.87     769.00
 10.97     735.52
 11.07     736.00
 11.17     755.00
 11.27     726.92
 11.37     653.50
 11.47     672.43
 11.57     697.00
 11.67     727.36
 11.77     702.97
 11.87     788.00
 11.97     765.00
 12.07     834.00
 12.17     828.00
 12.27     795.59
 12.37     791.00
 12.47     744.00
 12.57     714.85
 12.67     701.00
 12.77     753.00
 12.87     738.89
 12.97     663.00
 13.07     632.00
 13.17     653.00
 13.27     659.00
 13.37     660.86
 13.47     630.00
 13.57     683.00
 13.67     680.00
 13.77     684.62
 13.87     655.00
 13.97     730.66
 14.07     680.00
 14.17     641.20
 14.27     663.00
 14.37     622.00
 14.47     669.00
 14.57     645.00
 14.67     644.48
 14.77     629.00
 14.87     638.52
 14.97     668.00
 15.07     669.00
 15.17     618.15
 15.27     635.66
 15.37     629.00
 15.47     685.54
 15.57     660.00
 15.67     672.00
 15.77     701.03
 15.87     641.01
 15.97     647.00
 16.07     687.11
 16.17     679.00
 16.27     652.00
 16.37     684.00
 16.47     626.00
 16.57     637.79
 16.67     658.00
 16.77     694.39
 16.87     631.00
 16.97     598.00
 17.07     610.00
 17.17     656.72
 17.27     630.00
 17.37     636.00
 17.47     624.00
 17.57     654.00
 17.67     623.67
 17.77     634.00
 17.87     633.00
 17.97     647.46
 18.07     639.98
 18.17     656.00
 18.27     618.00
 18.37     630.00
 18.47     597.00
 18.57     592.00
 18.67     629.00
 18.77     648.52
 18.87     661.00
 18.97     662.00
 19.07     613.00
 19.17     632.00
 19.27     590.04
 19.37     633.00
 19.47     625.00
 19.57     643.01
 19.67     638.00
 19.77     589.41
 19.87     679.86
 19.97     612.00
 20.07     633.57
 20.17     598.00
 20.27     603.00
 20.37     661.00
 20.47     603.39
 20.57     626.00
 20.67     624.00
 20.77     593.00
 20.87     589.52
 20.97     648.00
 21.07     635.27
 21.17     594.00
 21.27     634.58
 21.37     587.26
 21.47     602.00
 21.57     592.00
 21.67     584.00
 21.77     629.00
 21.87     650.00
 21.97     621.50
 22.07     624.00
 22.17     623.55
 22.27     645.00
 22.37     575.00
 22.47     627.00
 22.57     613.38
 22.67     590.79
 22.77     665.93
 22.87     572.00
 22.97     607.70
 23.07     630.12
 23.17     619.00
 23.27     622.00
 23.37     591.00
 23.47     612.00
 23.57     640.00
 23.67     595.41
 23.77     584.99
 23.87     697.00
 23.97     648.98
 24.07     581.62
 24.17     660.00
 24.27     620.00
 24.37     633.00
 24.47     655.00
 24.57     641.00
 24.67     665.00
 24.77     673.00
 24.87     669.00
 24.97     717.00
 25.07     712.00
 25.17     695.00
 25.27     652.00
 25.37     662.00
 25.47     636.00
 25.57     666.00
 25.67     608.00
 25.77     605.17
 25.87     692.00
 25.97     684.19
 26.07     594.14
 26.17     680.57
 26.27     637.03
 26.37     602.00
 26.47     672.00
 26.57     617.00
 26.67     681.00
 26.77     688.00
 26.87     673.05
 26.97     637.13
 27.07     734.47
 27.17     710.62
 27.27     679.00
 27.37     752.00
 27.47     727.00
 27.57     780.00
 27.67     789.00
 27.77     901.00
 27.87    1048.00
 27.97    1373.33
 28.07    1876.00
 28.17    3306.75
 28.27    5178.00
 28.37    7098.00
 28.47    7954.00
 28.57    7064.01
 28.67    5475.00
 28.77    3845.92
 28.87    3360.39
 28.97    3706.00
 29.07    4292.00
 29.17    4545.51
 29.27    4113.00
 29.37    3087.00
 29.47    2213.00
 29.57    1501.00
 29.67    1152.71
 29.77    1012.00
 29.87     861.86
 29.97     806.00
 30.07     790.72
 30.17     750.29
 30.27     666.02
 30.37     692.29
 30.47     663.00
 30.57     754.00
 30.67     685.00
 30.77     737.07
 30.87     705.00
 30.97     748.00
 31.07     804.00
 31.17     796.15
 31.27     727.56
 31.37     824.00
 31.47     720.00
 31.57     692.12
 31.67     693.64
 31.77     707.00
 31.87     655.00
 31.97     616.03
 32.07     672.00
 32.17     667.00
 32.27     607.00
 32.37     618.59
 32.47     664.22
 32.57     615.00
 32.67     653.00
 32.77     621.00
 32.87     659.00
 32.97     565.67
 33.07     630.00
 33.17     624.00
 33.27     614.00
 33.37     662.00
 33.47     612.00
 33.57     604.61
 33.67     690.00
 33.77     719.00
 33.87     740.00
 33.97     902.38
 34.07     995.00
 34.17    1086.00
 34.27    1192.36
 34.37    1295.00
 34.47    1171.02
 34.57    1003.00
 34.67     876.00
 34.77     761.00
 34.87     764.48
 34.97     652.00
 35.07     698.00
 35.17     603.73
 35.27     674.00
 35.37     645.00
 35.47     606.07
 35.57     580.74
 35.67     620.00
 35.77     596.00
 35.87     582.00
 35.97     601.00
 36.07     558.01
 36.17     580.00
 36.27     605.00
 36.37     601.00
 36.47     560.76
 36.57     609.00
 36.67     632.00
 36.77     621.00
 36.87     608.10
 36.97     588.00
 37.07     598.00
 37.17     601.14
 37.27     599.00
 37.37     608.31
 37.47     582.00
 37.57     589.00
 37.67     628.00
 37.77     595.75
 37.87     678.35
 37.97     647.00
 38.07     738.00
 38.17     699.00
 38.27     768.19
 38.37     777.14
 38.47     748.00
 38.57     728.00
 38.67     649.00
 38.77     689.61
 38.87     587.53
 38.97     575.00
 39.07     585.00
 39.17     584.00
 39.27     588.00
 39.37     567.99
 39.47     621.55
 39.57     579.00
 39.67     547.89
 39.77     616.00
 39.87     627.00
 39.97     580.00
 40.07     585.00
 40.17     612.64
 40.27     627.46
 40.37     608.00
 40.47     539.83
 40.57     596.54
 40.67     604.01
 40.77     630.00
 40.87     612.00
 40.97     608.00
 41.07     612.80
 41.17     604.10
 41.27     626.59
 41.37     559.00
 41.47     581.00
 41.57     536.00
 41.67     589.00
 41.77     589.00
 41.87     599.00
 41.97     633.76
 42.07     598.00
 42.17     580.00
 42.27     566.00
 42.37     609.00
 42.47     592.91
 42.57     640.00
 42.67     622.85
 42.77     645.00
 42.87     702.39
 42.97     731.50
 43.07     745.47
 43.17     698.00
 43.27     681.69
 43.37     622.00
 43.47     634.00
 43.57     625.00
 43.67     641.17
 43.77     637.00
 43.87     567.88
 43.97     564.38
 44.07     608.00
 44.17     626.00
 44.27     640.00
 44.37     615.93
 44.47     651.00
 44.57     620.86
 44.67     596.00
 44.77     590.00
 44.87     614.00
 44.97     560.00
 45.07     618.00
 45.17     569.96
 45.27     597.84
 45.37     553.13
 45.47     540.00
 45.57     582.00
 45.67     595.81
 45.77     640.78
 45.87     587.00
 45.97     614.00
 46.07     619.00
 46.17     609.81
 46.27     584.00
 46.37     620.00
 46.47     633.00
 46.57     609.57
 46.67     588.00
 46.77     555.25
 46.87     604.00
 46.97     620.00
 47.07     587.90
 47.17     554.70
 47.27     613.00
 47.37     643.00
 47.47     564.00
 47.57     572.75
 47.67     607.00
 47.77     604.00
 47.87     598.17
 47.97     641.00
 48.07     728.00
 48.17     693.00
 48.27     694.34
 48.37     691.00
 48.47     678.00
 48.57     657.00
 48.67     658.00
 48.77     643.00
 48.87     657.00
 48.97     586.00
 49.07     604.00
 49.17     634.56
 49.27     692.78
 49.37     649.00
 49.47     641.00
 49.57     655.00
 49.67     684.71
 49.77     754.64
 49.87     813.00
 49.97     951.00
 50.07    1172.00
 50.17    1598.53
 50.27    2086.74
 50.37    2550.00
 50.47    2920.00
 50.57    3180.00
 50.67    3073.00
 50.77    2678.97
 50.87    2305.00
 50.97    1744.00
 51.07    1390.00
 51.17    1088.00
 51.27     889.60
 51.37     844.00
 51.47     815.00
 51.57     750.00
 51.67     724.04
 51.77     782.00
 51.87     660.79
 51.97     725.00
 52.07     651.00
 52.17     676.38
 52.27     660.80
 52.37     697.00
 52.47     667.00
 52.57     680.48
 52.67     644.00
 52.77     717.00
 52.87     617.00
 52.97     712.00
 53.07     679.00
 53.17     772.00
 53.27     707.54
 53.37     740.00
 53.47     887.00
 53.57     931.00
 53.67    1034.00
 53.77    1172.00
 53.87    1293.00
 53.97    1374.59
 54.07    1288.92
 54.17    1193.71
 54.27    1115.00
 54.37     980.51
 54.47     862.70
 54.57     771.00
 54.67     708.00
 54.77     767.23
 54.87     709.00
 54.97     692.56
 55.07     721.43
 55.17     645.00
 55.27     648.00
 55.37     647.00
 55.47     658.00
 55.57     661.49
 55.67     731.00
 55.77     664.74
 55.87     691.00
 55.97     701.00
 56.07     695.98
 56.17     688.00
 56.27     704.00
 56.37     710.00
 56.47     815.00
 56.57     917.00
 56.67    1036.00
 56.77    1174.00
 56.87    1546.00
 56.97    1863.52
 57.07    2180.00
 57.17    2547.00
 57.27    2754.26
 57.37    2770.00
 57.47    2550.00
 57.57    2247.05
 57.67    1965.93
 57.77    1703.00
 57.87    1389.24
 57.97    1069.00
 58.07     985.00
 58.17     908.00
 58.27     805.92
 58.37     816.00
 58.47     848.74
 58.57     858.38
 58.67     868.33
 58.77     894.00
 58.87     916.00
 58.97     982.00
 59.07    1208.00
 59.17    1258.00
 59.27    1282.20
 59.37    1400.67
 59.47    1382.61
 59.57    1407.00
 59.67    1242.00
 59.77    1219.71
 59.87    1296.00
 59.97    1148.58
 60.07    1269.00
 60.17    1236.00
 60.27    1336.00
 60.37    1439.29
 60.47    1500.00
 60.57    1646.00
 60.67    1551.09
 60.77    1604.00
 60.87    1491.00
 60.97    1410.26
 61.07    1229.28
 61.17    1170.00
 61.27    1043.43
 61.37     924.00
 61.47     840.00
 61.57     868.42
 61.67     806.00
 61.77     792.00
 61.87     848.97
 61.97     979.38
 62.07    1039.55
 62.17    1170.00
 62.27    1278.00
 62.37    1463.00
 62.47    1572.79
 62.57    1711.00
 62.67    1775.00
 62.77    1704.57
 62.87    1675.00
 62.97    1447.00
 63.07    1287.00
 63.17    1165.00
 63.27    1002.00
 63.37     942.87
 63.47     825.00
 63.57     853.00
 63.67     765.71
 63.77     736.00
 63.87     687.31
 63.97     710.00
 64.07     782.00
 64.17     698.14
 64.27     752.00
 64.37     776.93
 64.47     901.00
 64.57     956.08
 64.67    1049.46
 64.77    1041.19
 64.87    1288.78
 64.97    1414.45
 65.07    1497.00
 65.17    1499.14
 65.27    1614.40
 65.37    1527.52
 65.47    1422.00
 65.57    1401.00
 65.67    1206.00
 65.77    1129.44
 65.87     978.94
 65.97     996.11
 66.07     902.29
 66.17     773.58
 66.27     743.00
 66.37     764.00
 66.47     655.00
 66.57     726.38
 66.67     688.31
 66.77     685.00
 66.87     667.10
 66.97     669.00
 67.07     692.98
 67.17     716.00
 67.27     727.00
 67.37     730.00
 67.47     791.44
 67.57     827.91
 67.67     826.00
 67.77     929.00
 67.87     985.21
 67.97    1264.00
 68.07    1341.00
 68.17    1552.00
 68.27    1817.48
 68.37    2174.86
 68.47    2417.70
 68.57    2505.84
 68.67    2494.00
 68.77    2497.09
 68.87    2338.67
 68.97    2230.00
 69.07    1942.00
 69.17    1690.00
 69.27    1466.00
 69.37    1256.20
 69.47    1071.00
 69.57    1011.00
 69.67     942.00
 69.77     787.00
 69.87     789.00
 69.97     676.20
 70.07     733.00
 70.17     755.00
 70.27     698.85
 70.37     734.83
 70.47     753.00
 70.57     704.00
 70.67     625.88
 70.77     728.46
 70.87     699.79
 70.97     696.56
 71.07     702.00
 71.17     698.00
 71.27     755.97
 71.37     787.00
 71.47     770.00
 71.57     792.00
 71.67     776.25
 71.77     887.00
 71.87     940.39
 71.97    1104.00
 72.07    1308.00
 72.17    1386.03
 72.27    1548.00
 72.37    1804.00
 72.47    1944.00
 72.57    2071.98
 72.67    2004.00
 72.77    1985.00
 72.87    1861.08
 72.97    1688.00
 73.07    1563.00
 73.17    1379.00
 73.27    1179.00
 73.37    1148.79
 73.47     941.00
 73.57     839.55
 73.67     840.08
 73.77     804.00
 73.87     765.17
 73.97     649.08
 74.07     706.00
 74.17     687.00
 74.27     666.00
 74.37     721.16
 74.47     637.73
 74.57     670.00
 74.67     660.11
 74.77     649.00
 74.87     638.00
 74.97     702.04
 75.07     655.41
 75.17     669.00
 75.27     684.00
 75.37     713.00
 75.47     705.00
 75.57     640.14
 75.67     656.00
 75.77     720.00
 75.87     678.00
 75.97     661.00
 76.07     618.27
 76.17     721.00
 76.27     708.00
 76.37     699.00
 76.47     794.32
 76.57     783.00
 76.67     839.00
 76.77     857.00
 76.87     895.69
 76.97     997.00
 77.07     995.15
 77.17    1003.00
 77.27    1019.01
 77.37    1049.00
 77.47     947.00
 77.57     924.92
 77.67     945.38
 77.77     889.00
 77.87     806.76
 77.97     690.00
 78.07     729.00
 78.17     712.00
 78.27     614.00
 78.37     614.20
 78.47     667.22
 78.57     645.00
 78.67     614.00
 78.77     670.17
 78.87     642.00
 78.97     585.00
 79.07     615.00
 79.17     639.00
 79.27     606.00
 79.37     619.00
 79.47     636.00
 79.57     593.73
 79.67     610.95
 79.77     584.00
 79.87     622.00
 79.97     629.00
 80.07     601.18
 80.17     631.00
 80.27     621.00
 80.37     669.00
 80.47     665.00
 80.57     729.00
 80.67     740.00
 80.77     816.00
 80.87     827.00
 80.97     895.68
 81.07     925.18
 81.17    1037.00
 81.27    1142.00
 81.37    1187.00
 81.47    1305.00
 81.57    1387.00
 81.67    1286.24
 81.77    1306.32
 81.87    1438.00
 81.97    1284.66
 82.07    1301.08
 82.17    1205.65
 82.27    1301.00
 82.37    1215.00
 82.47    1078.94
 82.57     998.00
 82.67     916.38
 82.77     910.00
 82.87     849.00
 82.97     803.28
 83.07     761.00
 83.17     790.00
 83.27     746.49
 83.37     719.00
 83.47     704.29
 83.57     733.00
 83.67     631.00
 83.77     648.00
 83.87     626.95
 83.97     625.00
 84.07     611.00
 84.17     620.61
 84.27     607.00
 84.37     629.00
 84.47     637.02
 84.57     639.61
 84.67     617.00
 84.77     750.00
 84.87     624.00
 84.97     705.00
 85.07     669.00
 85.17     647.07
 85.27     611.00
 85.37     610.00
 85.47     617.00
 85.57     604.00
 85.67     611.46
 85.77     614.24
 85.87     612.00
 85.97     579.43
 86.07     604.00
 86.17     586.00
 86.27     629.00
 86.37     662.68
 86.47     599.00
 86.57     611.00
 86.67     604.00
 86.77     679.02
 86.87     670.00
 86.97     681.00
 87.07     636.00
 87.17     701.00
 87.27     733.00
 87.37     698.47
 87.47     726.63
 87.57     769.00
 87.67     745.00
 87.77     691.00
 87.87     806.00
 87.97     690.00
 88.07     747.00
 88.17     740.00
 88.27     782.00
 88.37     774.00
 88.47     761.11
 88.57     706.00
 88.67     697.00
 88.77     708.00
 88.87     673.00
 88.97     667.00
 89.07     687.00
 89.17     605.98
 89.27     683.00
 89.37     640.00
 89.47     641.00
 89.57     707.22
 89.67     644.72
 89.77     676.00
 89.87     660.90
 89.97     677.00
 90.07     714.00
 90.17     709.00
 90.27     702.00
 90.37     640.64
 90.47     653.86
 90.57     695.83
 90.67     655.00
 90.77     636.00
 90.87     659.00
 90.97     649.00
 91.07     586.00
 91.17     594.00
 91.27     656.00
 91.37     647.07
 91.47     630.64
 91.57     625.54
 91.67     611.00
 91.77     573.97
 91.87     615.00
 91.97     595.00
 92.07     600.23
 92.17     667.00
 92.27     617.14
 92.37     614.64
 92.47     602.00
 92.57     592.00
 92.67     569.21
 92.77     613.00
 92.87     639.00
 92.97     648.49
 93.07     685.90
 93.17     631.00
 93.27     723.39
 93.37     644.00
 93.47     720.00
 93.57     748.70
 93.67     778.00
 93.77     789.12
 93.87     756.00
 93.97     773.00
 94.07     837.48
 94.17     875.91
 94.27     813.72
 94.37     826.00
 94.47     902.00
 94.57     815.00
 94.67     880.45
 94.77     881.96
 94.87     997.00
 94.97     988.62
 95.07     998.00
 95.17     993.70
 95.27    1062.45
 95.37    1043.08
 95.47    1047.53
 95.57    1063.00
 95.67    1001.00
 95.77    1015.00
 95.87     970.61
 95.97     989.00
 96.07    1013.00
 96.17     948.00
 96.27     933.00
 96.37     869.00
 96.47     808.66
 96.57     865.00
 96.67     856.00
 96.77     775.19
 96.87     802.81
 96.97     856.00
 97.07     797.52
 97.17     867.00
 97.27     900.80
 97.37     930.17
 97.47    1030.37
 97.57    1041.05
 97.67    1188.00
 97.77    1218.00
 97.87    1231.61
 97.97    1337.00
 98.07    1433.00
 98.17    1508.00
 98.27    1502.00
 98.37    1553.36
 98.47    1515.07
 98.57    1606.00
 98.67    1632.58
 98.77    1610.36
 98.87    1507.00
 98.97    1430.00
 99.07    1334.00
 99.17    1314.00
 99.27    1237.00
 99.37    1163.59
 99.47    1155.00
 99.57    1091.00
 99.67    1069.00
 99.77    1011.00
 99.87    1014.00
 99.97    1017.89
100.07    1029.00
100.17    1054.00
100.27    1099.24
100.37    1089.12
100.47    1265.29
100.57    1317.00
100.67    1361.00
100.77    1482.00
100.87    1498.20
100.97    1593.39
101.07    1665.06
101.17    1812.00
101.27    1911.27
101.37    1959.00
101.47    1969.94
101.57    2016.00
101.67    2049.00
101.77    2216.00
101.87    2149.00
101.97    2176.00
102.07    2083.00
102.17    2035.00
102.27    1916.38
102.37    1880.00
102.47    1898.68
102.57    1731.00
102.67    1655.00
102.77    1635.00
102.87    1548.00
102.97    1438.29
103.07    1443.00
103.17    1401.61
103.27    1371.00
103.37    1263.00
103.47    1306.90
103.57    1245.00
103.67    1242.71
103.77    1272.20
103.87    1198.70
103.97    1141.00
104.07    1117.00
104.17    1042.00
104.27    1055.00
104.37     937.99
104.47     874.56
104.57     922.00
104.67     863.00
104.77     842.00
104.87     759.58
104.97     766.00
105.07     730.19
105.17     713.00
105.27     717.57
105.37     661.00
105.47     638.00
105.57     648.08
105.67     649.00
105.77     587.08
105.87     627.00
105.97     608.00
106.07     646.00
106.17     612.00
106.27     607.00
106.37     575.00
106.47     631.00
106.57     645.00
106.67     664.00
106.77     603.00
106.87     656.00
106.97     667.65
107.07     670.65
107.17     688.00
107.27     691.00
107.37     724.00
107.47     683.00
107.57     687.00
107.67     691.55
107.77     753.25
107.87     795.00
107.97     745.00
108.07     803.19
108.17     753.00
108.27     719.00
108.37     723.00
108.47     804.00
108.57     781.00
108.67     744.24
108.77     750.59
108.87     843.62
108.97     734.00
109.07     770.00
109.17     721.00
109.27     818.92
109.37     793.00
109.47     754.00
109.57     766.00
109.67     723.00
109.77     737.28
109.87     749.00
109.97     735.00
110.07     803.00
110.17     746.00
110.27     838.00
110.37     748.66
110.47     728.00
110.57     739.00
110.67     780.00
110.77     700.00
110.87     684.00
110.97     662.00
111.07     699.66
111.17     694.00
111.27     661.00
111.37     706.00
111.47     670.00
111.57     656.00
111.67     623.00
111.77     677.00
111.87     610.00
111.97     653.00
112.07     620.00
112.17     609.99
112.27     664.73
112.37     624.00
112.47     638.34
112.57     630.18
112.67     617.00
112.77     617.00
112.87     586.32
112.97     597.00
113.07     644.00
113.17     623.68
113.27     653.00
113.37     632.34
113.47     640.59
113.57     613.00
113.67     679.40
113.77     592.46
113.87     663.00
113.97     667.00
114.07     693.02
114.17     695.00
114.27     644.00
114.37     659.00
114.47     735.00
114.57     672.00
114.67     752.00
114.77     716.92
114.87     744.00
114.97     782.22
115.07     781.00
115.17     892.00
115.27     948.00
115.37    1000.90
115.47    1178.80
115.57    1227.38
115.67    1347.00
115.77    1474.00
115.87    1717.48
115.97    1851.00
116.07    2086.25
116.17    2306.87
116.27    2536.00
116.37    2806.00
116.47    3142.78
116.57    3405.89
116.67    3825.00
116.77    4114.69
116.87    4710.46
116.97    4961.22
117.07    5565.26
117.17    5838.47
117.27    6140.97
117.37    6540.00
117.47    6874.00
117.57    6991.06
117.67    7422.14
117.77    7447.00
117.87    7414.00
117.97    7545.00
118.07    7529.00
118.17    7463.00
118.27    7225.00
118.37    7072.35
118.47    6673.00
118.57    6136.00
118.67    5773.00
118.77    5552.38
118.87    5234.18
118.97    4810.00
119.07    4549.00
119.17    4207.00
119.27    3648.66
119.37    3424.24
119.47    3185.00
119.57    2866.00
119.67    2581.00
119.77    2390.00
119.87    1975.50
119.97    1867.50
120.07    1751.90
120.17    1575.44
120.27    1491.00
120.37    1353.00
120.47    1262.12
120.57    1185.00
120.67    1058.57
120.77    1048.00
120.87     894.67
120.97     950.61
121.07     885.00
121.17     871.00
121.27     841.24
121.37     811.95
121.47     775.00
121.57     740.00
121.67     745.00
121.77     685.00
121.87     712.56
121.97     736.00
122.07     718.70
122.17     686.00
122.27     642.00
122.37     690.82
122.47     719.00
122.57     659.00
122.67     661.41
122.77     748.14
122.87     685.00
122.97     650.00
123.07     733.03
123.17     710.48
123.27     685.00
123.37     705.00
123.47     749.00
123.57     775.00
123.67     750.00
123.77     770.00
123.87     776.00
123.97     741.57
124.07     741.24
124.17     784.00
124.27     775.00
124.37     793.00
124.47     823.56
124.57     773.04
124.67     775.00
124.77     802.00
124.87     784.80
124.97     756.37
