  9.97     760.00
 10.07     734.87
 10.17     731.73
 10.27     728.00
 10.37     730.00
 10.47     728.00
 10.57     733.00
 10.67     747.00
 10.77     719.00
 10.87     714.58
 10.97     690.32
 11.07     724.00
 11.17     747.24
 11.27     737.00
 11.37     791.00
 11.47     679.18
 11.57     789.00
 11.67     769.00
 11.77     791.00
 11.87     763.00
 11.97     721.22
 12.07     855.00
 12.17     817.85
 12.27     882.00
 12.37     841.00
 12.47     787.83
 12.57     784.27
 12.67     712.00
 12.77     753.00
 12.87     743.00
 12.97     742.51
 13.07     706.77
 13.17     657.34
 13.27     761.00
 13.37     674.00
 13.47     702.00
 13.57     668.00
 13.67     659.00
 13.77     695.00
 13.87     752.73
 13.97     728.00
 14.07     763.00
 14.17     686.00
 14.27     748.50
 14.37     727.53
 14.47     711.78
 14.57     741.30
 14.67     736.30
 14.77     679.00
 14.87     676.98
 14.97     717.30
 15.07     640.49
 15.17     620.00
 15.27     692.00
 15.37     693.00
 15.47     683.00
 15.57     720.00
 15.67     679.00
 15.77     673.00
 15.87     670.00
 15.97     707.00
 16.07     684.00
 16.17     637.99
 16.27     683.00
 16.37     627.66
 16.47     686.00
 16.57     635.36
 16.67     725.29
 16.77     667.00
 16.87     618.00
 16.97     661.00
 17.07     658.00
 17.17     636.00
 17.27     634.00
 17.37     670.00
 17.47     703.52
 17.57     658.00
 17.67     672.00
 17.77     602.00
 17.87     657.00
 17.97     637.00
 18.07     619.04
 18.17     662.49
 18.27     682.00
 18.37     652.00
 18.47     699.83
 18.57     667.00
 18.67     712.00
 18.77     701.24
 18.87     649.02
 18.97     608.00
 19.07     657.97
 19.17     643.00
 19.27     617.00
 19.37     636.00
 19.47     670.00
 19.57     615.01
 19.67     648.00
 19.77     665.45
 19.87     653.10
 19.97     650.00
 20.07     628.00
 20.17     693.58
 20.27     659.14
 20.37     635.46
 20.47     651.00
 20.57     655.00
 20.67     696.32
 20.77     639.00
 20.87     603.71
 20.97     674.35
 21.07     696.00
 21.17     669.07
 21.27     686.49
 21.37     604.37
 21.47     655.00
 21.57     616.89
 21.67     646.00
 21.77     636.73
 21.87     632.00
 21.97     669.00
 22.07     666.00
 22.17     637.00
 22.27     641.00
 22.37     695.76
 22.47     700.97
 22.57     616.00
 22.67     628.00
 22.77     648.00
 22.87     640.38
 22.97     618.77
 23.07     648.00
 23.17     616.00
 23.27     628.00
 23.37     662.00
 23.47     655.00
 23.57     643.67
 23.67     658.00
 23.77     682.25
 23.87     640.00
 23.97     627.00
 24.07     651.00
 24.17     724.00
 24.27     651.74
 24.37     717.00
 24.47     685.00
 24.57     618.27
 24.67     651.60
 24.77     650.23
 24.87     728.00
 24.97     748.00
 25.07     726.00
 25.17     741.78
 25.27     737.00
 25.37     732.20
 25.47     655.00
 25.57     662.00
 25.67     645.00
 25.77     694.07
 25.87     645.00
 25.97     694.00
 26.07     655.03
 26.17     700.00
 26.27     651.00
 26.37     712.71
 26.47     654.00
 26.57     687.08
 26.67     671.00
 26.77     710.00
 26.87     705.00
 26.97     680.98
 27.07     705.00
 27.17     719.00
 27.27     755.00
 27.37     762.00
 27.47     758.29
 27.57     810.00
 27.67     839.00
 27.77     916.00
 27.87    1035.00
 27.97    1391.00
 28.07    2135.93
 28.17    3382.87
 28.27    5389.00
 28.37    7827.00
 28.47    9111.00
 28.57    8866.00
 28.67    6901.00
 28.77    5001.00
 28.87    3974.00
 28.97    3981.46
 29.07    4787.00
 29.17    5205.51
 29.27    4865.80
 29.37    3824.80
 29.47    2735.00
 29.57    1894.00
 29.67    1327.39
 29.77    1103.00
 29.87     864.22
 29.97     814.83
 30.07     876.00
 30.17     797.00
 30.27     773.00
 30.37     745.00
 30.47     726.00
 30.57     743.00
 30.67     750.83
 30.77     713.85
 30.87     735.00
 30.97     785.79
 31.07     761.59
 31.17     910.00
 31.27     802.21
 31.37     754.00
 31.47     728.00
 31.57     691.99
 31.67     703.00
 31.77     692.97
 31.87     672.69
 31.97     690.00
 32.07     617.68
 32.17     631.63
 32.27     658.16
 32.37     659.41
 32.47     651.70
 32.57     696.08
 32.67     664.06
 32.77     688.00
 32.87     695.00
 32.97     667.00
 33.07     642.00
 33.17     644.00
 33.27     701.22
 33.37     698.86
 33.47     695.00
 33.57     710.00
 33.67     670.00
 33.77     732.40
 33.87     794.00
 33.97     835.00
 34.07     965.15
 34.17    1049.00
 34.27    1254.00
 34.37    1327.00
 34.47    1264.00
 34.57    1073.00
 34.67     931.00
 34.77     817.00
 34.87     788.00
 34.97     760.56
 35.07     732.00
 35.17     678.00
 35.27     709.19
 35.37     680.00
 35.47     668.00
 35.57     646.00
 35.67     621.00
 35.77     628.00
 35.87     622.37
 35.97     630.00
 36.07     652.88
 36.17     655.00
 36.27     618.00
 36.37     639.00
 36.47     614.36
 36.57     588.38
 36.67     637.00
 36.77     615.12
 36.87     600.00
 36.97     649.00
 37.07     619.00
 37.17     658.00
 37.27     688.00
 37.37     622.23
 37.47     620.24
 37.57     656.00
 37.67     655.00
 37.77     679.00
 37.87     669.66
 37.97     736.34
 38.07     697.00
 38.17     713.47
 38.27     817.00
 38.37     759.49
 38.47     799.00
 38.57     774.00
 38.67     728.00
 38.77     658.00
 38.87     668.01
 38.97     649.85
 39.07     654.54
 39.17     629.00
 39.27     616.00
 39.37     613.87
 39.47     622.00
 39.57     626.00
 39.67     585.86
 39.77     611.00
 39.87     605.00
 39.97     640.00
 40.07     573.06
 40.17     598.00
 40.27     643.01
 40.37     596.00
 40.47     651.55
 40.57     655.58
 40.67     587.00
 40.77     617.00
 40.87     642.00
 40.97     629.00
 41.07     655.02
 41.17     614.00
 41.27     636.00
 41.37     608.00
 41.47     630.00
 41.57     644.39
 41.67     616.00
 41.77     630.00
 41.87     652.38
 41.97     622.00
 42.07     607.00
 42.17     629.62
 42.27     607.00
 42.37     610.00
 42.47     663.98
 42.57     617.00
 42.67     630.00
 42.77     737.01
 42.87     683.51
 42.97     686.00
 43.07     767.00
 43.17     745.00
 43.27     739.00
 43.37     653.92
 43.47     680.00
 43.57     650.00
 43.67     663.82
 43.77     664.00
 43.87     710.00
 43.97     618.80
 44.07     639.00
 44.17     644.00
 44.27     600.74
 44.37     634.00
 44.47     630.00
 44.57     643.00
 44.67     611.03
 44.77     700.00
 44.87     626.00
 44.97     624.00
 45.07     639.26
 45.17     647.00
 45.27     613.45
 45.37     662.00
 45.47     690.00
 45.57     647.00
 45.67     579.00
 45.77     643.09
 45.87     630.00
 45.97     652.00
 46.07     650.00
 46.17     619.65
 46.27     622.00
 46.37     651.31
 46.47     625.00
 46.57     671.78
 46.67     657.00
 46.77     663.00
 46.87     616.00
 46.97     668.02
 47.07     635.00
 47.17     597.00
 47.27     670.26
 47.37     617.00
 47.47     638.00
 47.57     696.91
 47.67     622.39
 47.77     607.58
 47.87     676.68
 47.97     636.54
 48.07     700.00
 48.17     706.31
 48.27     707.00
 48.37     780.00
 48.47     720.00
 48.57     681.00
 48.67     694.00
 48.77     721.58
 48.87     643.48
 48.97     626.65
 49.07     627.68
 49.17     667.35
 49.27     713.85
 49.37     649.00
 49.47     654.73
 49.57     708.00
 49.67     712.00
 49.77     783.00
 49.87     809.00
 49.97     927.00
 50.07    1125.00
 50.17    1497.00
 50.27    1865.00
 50.37    2433.90
 50.47    3028.07
 50.57    3224.00
 50.67    3206.00
 50.77    2905.00
 50.87    2585.14
 50.97    2124.12
 51.07    1514.00
 51.17    1284.00
 51.27    1123.00
 51.37     932.72
 51.47     845.00
 51.57     823.00
 51.67     782.00
 51.77     710.00
 51.87     751.00
 51.97     759.00
 52.07     721.00
 52.17     766.00
 52.27     728.00
 52.37     681.69
 52.47     711.29
 52.57     688.00
 52.67     735.00
 52.77     755.68
 52.87     680.00
 52.97     698.94
 53.07     774.58
 53.17     784.17
 53.27     759.00
 53.37     804.00
 53.47     911.00
 53.57     940.00
 53.67     971.00
 53.77    1131.00
 53.87    1264.09
 53.97    1227.00
 54.07    1257.64
 54.17    1251.96
 54.27    1265.01
 54.37    1152.87
 54.47     974.00
 54.57     860.00
 54.67     854.74
 54.77     745.15
 54.87     770.00
 54.97     687.72
 55.07     745.98
 55.17     686.00
 55.27     675.47
 55.37     724.00
 55.47     767.00
 55.57     708.61
 55.67     731.00
 55.77     667.61
 55.87     733.00
 55.97     732.00
 56.07     695.00
 56.17     752.00
 56.27     768.00
 56.37     820.00
 56.47     872.25
 56.57     902.00
 56.67    1047.10
 56.77    1137.00
 56.87    1454.00
 56.97    1716.00
 57.07    2075.00
 57.17    2301.98
 57.27    2638.00
 57.37    2811.00
 57.47    2716.00
 57.57    2500.00
 57.67    2186.93
 57.77    1836.52
 57.87    1532.00
 57.97    1311.00
 58.07    1099.00
 58.17     991.00
 58.27     933.00
 58.37     863.00
 58.47     781.00
 58.57     874.00
 58.67     880.00
 58.77     882.00
 58.87    1035.05
 58.97    1018.00
 59.07    1091.59
 59.17    1175.90
 59.27    1283.00
 59.37    1427.77
 59.47    1332.41
 59.57    1454.04
 59.67    1316.10
 59.77    1346.00
 59.87    1306.00
 59.97    1280.00
 60.07    1343.00
 60.17    1187.93
 60.27    1344.00
 60.37    1435.00
 60.47    1561.00
 60.57    1567.00
 60.67    1629.18
 60.77    1640.00
 60.87    1654.59
 60.97    1492.71
 61.07    1338.00
 61.17    1243.00
 61.27    1099.00
 61.37    1044.57
 61.47     928.00
 61.57     855.07
 61.67     804.41
 61.77     800.00
 61.87     823.62
 61.97    1001.35
 62.07     984.03
 62.17    1183.51
 62.27    1302.00
 62.37    1510.00
 62.47    1580.82
 62.57    1831.00
 62.67    1877.00
 62.77    1865.00
 62.87    1798.00
 62.97    1674.00
 63.07    1451.00
 63.17    1288.00
 63.27    1160.00
 63.37     956.00
 63.47     954.00
 63.57     823.00
 63.67     797.00
 63.77     790.00
 63.87     765.00
 63.97     741.00
 64.07     824.00
 64.17     788.00
 64.27     754.00
 64.37     834.00
 64.47     816.58
 64.57     973.09
 64.67    1018.05
 64.77    1119.48
 64.87    1243.00
 64.97    1373.00
 65.07    1442.00
 65.17    1551.25
 65.27    1619.35
 65.37    1761.00
 65.47    1650.00
 65.57    1506.00
 65.67    1380.00
 65.77    1261.57
 65.87    1137.37
 65.97    1043.00
 66.07    1045.52
 66.17     897.00
 66.27     821.63
 66.37     836.69
 66.47     773.00
 66.57     725.98
 66.67     737.39
 66.77     720.00
 66.87     738.00
 66.97     708.00
 67.07     713.00
 67.17     793.53
 67.27     763.72
 67.37     818.36
 67.47     794.00
 67.57     809.00
 67.67     831.00
 67.77     895.19
 67.87    1012.94
 67.97    1185.66
 68.07    1252.00
 68.17    1484.00
 68.27    1715.07
 68.37    1937.20
 68.47    2157.40
 68.57    2576.00
 68.67    2497.00
 68.77    2576.00
 68.87    2442.75
 68.97    2261.33
 69.07    2123.00
 69.17    1855.73
 69.27    1625.00
 69.37    1414.21
 69.47    1318.00
 69.57    1114.00
 69.67    1030.00
 69.77     967.00
 69.87     899.00
 69.97     847.00
 70.07     797.00
 70.17     764.89
 70.27     697.60
 70.37     699.75
 70.47     757.00
 70.57     788.00
 70.67     719.77
 70.77     717.16
 70.87     751.00
 70.97     773.51
 71.07     703.12
 71.17     724.00
 71.27     832.00
 71.37     739.00
 71.47     730.00
 71.57     777.00
 71.67     887.16
 71.77     872.95
 71.87     915.00
 71.97    1126.00
 72.07    1284.00
 72.17    1275.16
 72.27    1439.00
 72.37    1672.00
 72.47    1752.26
 72.57    1986.00
 72.67    2081.56
 72.77    2029.00
 72.87    1894.00
 72.97    1903.40
 73.07    1635.16
 73.17    1500.19
 73.27    1316.33
 73.37    1208.00
 73.47    1161.18
 73.57    1012.00
 73.67     899.00
 73.77     837.00
 73.87     838.00
 73.97     750.50
 74.07     745.82
 74.17     693.85
 74.27     745.86
 74.37     686.00
 74.47     744.00
 74.57     666.00
 74.67     694.08
 74.77     649.53
 74.87     725.00
 74.97     671.00
 75.07     706.00
 75.17     691.00
 75.27     756.63
 75.37     751.00
 75.47     687.67
 75.57     694.44
 75.67     699.00
 75.77     730.00
 75.87     705.99
 75.97     753.35
 76.07     656.30
 76.17     718.00
 76.27     684.00
 76.37     734.00
 76.47     811.88
 76.57     748.65
 76.67     849.01
 76.77     940.30
 76.87     905.00
 76.97     894.00
 77.07    1068.00
 77.17    1026.00
 77.27    1042.00
 77.37    1091.00
 77.47    1076.00
 77.57     980.00
 77.67     959.60
 77.77     918.00
 77.87     891.00
 77.97     789.18
 78.07     808.00
 78.17     750.00
 78.27     752.00
 78.37     700.00
 78.47     685.13
 78.57     659.29
 78.67     654.00
 78.77     713.00
 78.87     710.00
 78.97     696.00
 79.07     656.00
 79.17     673.00
 79.27     684.74
 79.37     611.08
 79.47     643.00
 79.57     689.89
 79.67     625.00
 79.77     680.00
 79.87     659.00
 79.97     661.72
 80.07     631.89
 80.17     684.52
 80.27     701.00
 80.37     668.31
 80.47     724.00
 80.57     735.00
 80.67     743.00
 80.77     783.00
 80.87     872.00
 80.97     899.00
 81.07    1027.28
 81.17    1088.00
 81.27    1210.00
 81.37    1198.05
 81.47    1275.57
 81.57    1449.00
 81.67    1499.36
 81.77    1568.00
 81.87    1549.57
 81.97    1596.00
 82.07    1519.73
 82.17    1497.00
 82.27    1410.27
 82.37    1309.00
 82.47    1245.24
 82.57    1209.00
 82.67    1015.54
 82.77    1054.00
 82.87     977.00
 82.97     934.00
 83.07     839.00
 83.17     780.99
 83.27     811.91
 83.37     720.76
 83.47     731.00
 83.57     653.00
 83.67     680.00
 83.77     642.00
 83.87     713.17
 83.97     645.00
 84.07     702.00
 84.17     734.77
 84.27     659.00
 84.37     682.00
 84.47     765.47
 84.57     744.37
 84.67     741.14
 84.77     677.21
 84.87     671.00
 84.97     648.00
 85.07     707.34
 85.17     635.00
 85.27     642.00
 85.37     655.00
 85.47     695.52
 85.57     647.00
 85.67     713.19
 85.77     601.00
 85.87     695.80
 85.97     674.00
 86.07     622.00
 86.17     597.95
 86.27     676.68
 86.37     658.00
 86.47     637.00
 86.57     706.62
 86.67     713.00
 86.77     657.00
 86.87     682.00
 86.97     673.00
 87.07     662.00
 87.17     654.18
 87.27     729.00
 87.37     717.00
 87.47     755.00
 87.57     742.72
 87.67     762.40
 87.77     695.56
 87.87     722.00
 87.97     744.00
 88.07     756.00
 88.17     751.40
 88.27     736.00
 88.37     757.00
 88.47     726.58
 88.57     753.00
 88.67     766.00
 88.77     743.00
 88.87     734.00
 88.97     707.00
 89.07     691.00
 89.17     706.00
 89.27     642.22
 89.37     626.00
 89.47     644.00
 89.57     681.00
 89.67     691.80
 89.77     699.00
 89.87     715.82
 89.97     646.37
 90.07     665.89
 90.17     738.00
 90.27     784.00
 90.37     706.00
 90.47     749.65
 90.57     653.00
 90.67     707.37
 90.77     628.68
 90.87     643.00
 90.97     643.00
 91.07     684.00
 91.17     641.00
 91.27     630.00
 91.37     628.00
 91.47     674.67
 91.57     588.37
 91.67     583.20
 91.77     608.00
 91.87     601.47
 91.97     584.72
 92.07     584.00
 92.17     635.66
 92.27     591.50
 92.37     609.00
 92.47     631.00
 92.57     583.00
 92.67     637.00
 92.77     658.00
 92.87     619.80
 92.97     633.00
 93.07     682.00
 93.17     678.00
 93.27     680.76
 93.37     735.00
 93.47     719.00
 93.57     704.10
 93.67     767.00
 93.77     740.00
 93.87     817.00
 93.97     796.00
 94.07     880.15
 94.17     782.00
 94.27     845.00
 94.37     862.00
 94.47     842.54
 94.57     928.00
 94.67     895.00
 94.77     954.00
 94.87     980.00
 94.97    1008.00
 95.07     974.81
 95.17    1036.00
 95.27    1040.00
 95.37    1059.00
 95.47    1064.03
 95.57    1127.00
 95.67    1147.00
 95.77    1104.00
 95.87    1104.00
 95.97    1024.29
 96.07    1062.47
 96.17     952.92
 96.27    1002.00
 96.37     938.10
 96.47     948.00
 96.57     952.00
 96.67     835.00
 96.77     882.00
 96.87     830.00
 96.97     818.00
 97.07     896.91
 97.17     901.00
 97.27     934.00
 97.37     995.00
 97.47     996.00
 97.57    1040.00
 97.67    1111.00
 97.77    1168.06
 97.87    1240.00
 97.97    1257.14
 98.07    1286.00
 98.17    1505.00
 98.27    1546.00
 98.37    1603.48
 98.47    1621.14
 98.57    1700.13
 98.67    1703.00
 98.77    1650.39
 98.87    1619.17
 98.97    1571.85
 99.07    1518.00
 99.17    1341.30
 99.27    1291.00
 99.37    1271.00
 99.47    1239.02
 99.57    1206.00
 99.67    1121.00
 99.77    1069.39
 99.87    1081.58
 99.97    1057.00
100.07    1040.00
100.17    1010.02
100.27    1033.33
100.37    1143.00
100.47    1228.10
100.57    1268.67
100.67    1287.00
100.77    1424.00
100.87    1551.00
100.97    1501.65
101.07    1683.00
101.17    1759.00
101.27    1760.44
101.37    1916.00
101.47    1978.00
101.57    2069.00
101.67    2107.99
101.77    2050.00
101.87    2209.70
101.97    2150.27
102.07    2163.17
102.17    2035.00
102.27    2074.00
102.37    2021.00
102.47    1993.00
102.57    1871.39
102.67    1812.00
102.77    1706.35
102.87    1650.00
102.97    1669.91
103.07    1506.85
103.17    1504.93
103.27    1388.63
103.37    1353.21
103.47    1466.46
103.57    1262.00
103.67    1266.38
103.77    1266.00
103.87    1307.03
103.97    1264.00
104.07    1188.00
104.17    1170.00
104.27    1160.36
104.37     993.00
104.47    1011.00
104.57    1038.00
104.67     941.28
104.77     928.86
104.87     848.00
104.97     809.14
105.07     785.00
105.17     758.00
105.27     735.00
105.37     702.00
105.47     773.00
105.57     663.42
105.67     716.56
105.77     675.00
105.87     684.00
105.97     692.00
106.07     698.00
106.17     648.00
106.27     662.00
106.37     608.59
106.47     688.00
106.57     595.43
106.67     677.00
106.77     692.95
106.87     621.84
106.97     675.00
107.07     669.00
107.17     722.01
107.27     710.00
107.37     676.00
107.47     754.00
107.57     686.00
107.67     776.37
107.77     733.30
107.87     739.00
107.97     806.41
108.07     765.00
108.17     808.00
108.27     752.00
108.37     824.00
108.47     870.97
108.57     793.00
108.67     824.00
108.77     869.00
108.87     794.00
108.97     771.10
109.07     771.00
109.17     766.00
109.27     739.00
109.37     775.00
109.47     732.00
109.57     741.00
109.67     815.00
109.77     770.00
109.87     781.00
109.97     806.00
110.07     804.57
110.17     819.00
110.27     849.00
110.37     828.00
110.47     750.64
110.57     804.00
110.67     788.00
110.77     782.00
110.87     785.00
110.97     752.00
111.07     780.00
111.17     741.00
111.27     690.89
111.37     692.00
111.47     718.00
111.57     702.00
111.67     642.08
111.77     685.00
111.87     656.00
111.97     669.34
112.07     628.00
112.17     672.00
112.27     642.00
112.37     668.00
112.47     627.63
112.57     626.00
112.67     626.00
112.77     665.00
112.87     615.00
112.97     631.00
113.07     644.13
113.17     643.00
113.27     651.00
113.37     683.00
113.47     652.44
113.57     706.08
113.67     668.00
113.77     712.43
113.87     662.00
113.97     628.00
114.07     697.00
114.17     689.00
114.27     660.00
114.37     731.53
114.47     704.35
114.57     750.00
114.67     704.00
114.77     705.00
114.87     755.00
114.97     797.00
115.07     783.86
115.17     903.55
115.27     954.95
115.37     952.88
115.47    1019.00
115.57    1144.00
115.67    1192.00
115.77    1344.00
115.87    1538.93
115.97    1652.00
116.07    1713.56
116.17    1993.51
116.27    2169.19
116.37    2584.00
116.47    2741.69
116.57    3100.00
116.67    3444.00
116.77    3857.79
116.87    4118.00
116.97    4504.72
117.07    4889.00
117.17    5268.00
117.27    5542.85
117.37    6111.00
117.47    6553.71
117.57    6694.00
117.67    7183.00
117.77    7068.00
117.87    7525.00
117.97    7764.00
118.07    7666.00
118.17    7696.72
118.27    7675.00
118.37    7520.47
118.47    7054.00
118.57    6858.40
118.67    6260.00
118.77    6111.00
118.87    5803.00
118.97    5477.00
119.07    5136.60
119.17    4756.00
119.27    4419.00
119.37    3967.19
119.47    3817.00
119.57    3361.00
119.67    3112.95
119.77    2784.00
119.87    2540.00
119.97    2348.00
120.07    2047.00
120.17    1903.00
120.27    1792.00
120.37    1541.18
120.47    1387.79
120.57    1363.28
120.67    1250.41
120.77    1112.24
120.87    1028.38
120.97    1013.85
121.07    1004.44
121.17     982.00
121.27     899.00
121.37     865.00
121.47     868.00
121.57     813.02
121.67     803.00
121.77     777.00
121.87     776.00
121.97     727.00
122.07     737.00
122.17     727.00
122.27     762.99
122.37     797.29
122.47     741.00
122.57     709.00
122.67     719.00
122.77     721.00
122.87     720.00
122.97     681.00
123.07     730.60
123.17     714.00
123.27     739.00
123.37     774.85
123.47     791.80
123.57     759.56
123.67     765.00
123.77     747.00
123.87     780.00
123.97     791.16
124.07     832.26
124.17     782.00
124.27     778.35
124.37     818.00
124.47     805.29
124.57     783.48
124.67     845.00
124.77     845.00
124.87     870.00
124.97     740.25
