  9.97     641.87
 10.07     559.08
 10.17     663.00
 10.27     700.00
 10.37     657.00
 10.47     609.64
 10.57     615.30
 10.67     683.00
 10.77     598.37
 10.87     660.00
 10.97     686.00
 11.07     701.00
 11.17     649.00
 11.27     569.99
 11.37     623.79
 11.47     658.38
 11.57     670.00
 11.67     571.02
 11.77     688.00
 11.87     603.09
 11.97     643.57
 12.07     665.06
 12.17     682.72
 12.27     798.52
 12.37     747.00
 12.47     753.00
 12.57     691.00
 12.67     666.00
 12.77     698.95
 12.87     685.32
 12.97     631.00
 13.07     603.00
 13.17     612.00
 13.27     610.45
 13.37     624.37
 13.47     680.60
 13.57     582.00
 13.67     610.00
 13.77     622.00
 13.87     683.90
 13.97     600.31
 14.07     634.00
 14.17     622.00
 14.27     616.44
 14.37     618.12
 14.47     605.00
 14.57     589.67
 14.67     592.01
 14.77     573.41
 14.87     593.13
 14.97     598.00
 15.07     626.00
 15.17     685.62
 15.27     667.92
 15.37     670.49
 15.47     641.00
 15.57     583.00
 15.67     651.96
 15.77     604.00
 15.87     656.00
 15.97     614.00
 16.07     607.00
 16.17     620.03
 16.27     658.00
 16.37     635.30
 16.47     689.42
 16.57     619.62
 16.67     640.19
 16.77     622.00
 16.87     594.00
 16.97     598.00
 17.07     605.00
 17.17     576.00
 17.27     645.09
 17.37     609.15
 17.47     619.00
 17.57     613.00
 17.67     661.00
 17.77     702.75
 17.87     617.91
 17.97     651.74
 18.07     580.00
 18.17     655.00
 18.27     623.93
 18.37     579.00
 18.47     621.68
 18.57     695.25
 18.67     630.26
 18.77     606.00
 18.87     591.87
 18.97     610.00
 19.07     638.00
 19.17     563.00
 19.27     603.00
 19.37     620.00
 19.47     606.00
 19.57     606.00
 19.67     603.37
 19.77     601.12
 19.87     638.47
 19.97     620.00
 20.07     618.00
 20.17     682.46
 20.27     587.00
 20.37     639.02
 20.47     674.67
 20.57     661.00
 20.67     602.00
 20.77     608.00
 20.87     621.00
 20.97     640.49
 21.07     580.00
 21.17     608.63
 21.27     619.00
 21.37     653.00
 21.47     666.92
 21.57     650.00
 21.67     634.00
 21.77     602.00
 21.87     624.00
 21.97     612.00
 22.07     611.00
 22.17     691.32
 22.27     609.68
 22.37     703.26
 22.47     625.00
 22.57     695.48
 22.67     627.00
 22.77     598.00
 22.87     641.64
 22.97     612.00
 23.07     606.00
 23.17     636.00
 23.27     589.00
 23.37     597.00
 23.47     594.95
 23.57     642.00
 23.67     655.00
 23.77     680.00
 23.87     675.25
 23.97     636.00
 24.07     586.85
 24.17     610.96
 24.27     656.00
 24.37     660.00
 24.47     632.21
 24.57     639.00
 24.67     745.89
 24.77     688.64
 24.87     694.02
 24.97     730.00
 25.07     696.00
 25.17     695.00
 25.27     692.00
 25.37     647.79
 25.47     622.00
 25.57     589.00
 25.67     662.62
 25.77     629.00
 25.87     652.00
 25.97     666.00
 26.07     651.14
 26.17     660.58
 26.27     693.00
 26.37     571.74
 26.47     562.60
 26.57     579.01
 26.67     669.00
 26.77     700.00
 26.87     555.99
 26.97     731.00
 27.07     585.91
 27.17     794.00
 27.27     648.23
 27.37     710.00
 27.47     579.66
 27.57     611.46
 27.67     628.59
 27.77     757.00
 27.87     799.00
 27.97     814.00
 28.07     832.89
 28.17     953.00
 28.27    1054.00
 28.37    1154.00
 28.47    1096.00
 28.57     984.12
 28.67     955.00
 28.77     930.00
 28.87     917.80
 28.97    1037.00
 29.07     865.14
 29.17     854.14
 29.27     842.91
 29.37     924.00
 29.47     809.00
 29.57     780.00
 29.67     722.00
 29.77     752.00
 29.87     801.00
 29.97     581.00
 30.07     691.00
 30.17     764.00
 30.27     695.00
 30.37     681.00
 30.47     672.00
 30.57     685.93
 30.67     657.00
 30.77     663.01
 30.87     606.77
 30.97     775.00
 31.07     731.00
 31.17     690.41
 31.27     743.00
 31.37     696.00
 31.47     689.82
 31.57     632.00
 31.67     695.00
 31.77     661.60
 31.87     638.87
 31.97     638.00
 32.07     619.05
 32.17     605.00
 32.27     627.00
 32.37     634.00
 32.47     590.00
 32.57     628.00
 32.67     575.00
 32.77     534.16
 32.87     592.00
 32.97     620.00
 33.07     582.00
 33.17     625.00
 33.27     639.00
 33.37     646.00
 33.47     607.00
 33.57     654.00
 33.67     681.00
 33.77     676.71
 33.87     767.00
 33.97     880.00
 34.07    1056.28
 34.17    1044.00
 34.27    1044.00
 34.37     986.00
 34.47     929.13
 34.57     739.00
 34.67     677.00
 34.77     643.00
 34.87     638.00
 34.97     606.00
 35.07     613.00
 35.17     581.00
 35.27     598.00
 35.37     651.52
 35.47     552.00
 35.57     534.08
 35.67     584.00
 35.77     597.00
 35.87     519.00
 35.97     522.28
 36.07     559.00
 36.17     546.00
 36.27     560.00
 36.37     530.00
 36.47     577.16
 36.57     515.00
 36.67     578.00
 36.77     548.00
 36.87     523.00
 36.97     515.97
 37.07     562.83
 37.17     585.00
 37.27     560.16
 37.37     554.95
 37.47     571.35
 37.57     514.00
 37.67     550.00
 37.77     557.00
 37.87     528.00
 37.97     546.00
 38.07     525.55
 38.17     576.77
 38.27     545.00
 38.37     547.00
 38.47     521.12
 38.57     612.79
 38.67     481.00
 38.77     521.00
 38.87     537.10
 38.97     502.00
 39.07     575.00
 39.17     574.00
 39.27     552.00
 39.37     557.00
 39.47     530.00
 39.57     547.00
 39.67     593.00
 39.77     611.66
 39.87     501.08
 39.97     552.65
 40.07     577.85
 40.17     571.00
 40.27     534.00
 40.37     549.00
 40.47     567.00
 40.57     544.00
 40.67     584.04
 40.77     514.00
 40.87     518.00
 40.97     538.00
 41.07     490.00
 41.17     553.00
 41.27     551.00
 41.37     518.24
 41.47     557.35
 41.57     611.39
 41.67     552.00
 41.77     520.00
 41.87     566.00
 41.97     524.76
 42.07     557.00
 42.17     540.00
 42.27     554.00
 42.37     543.00
 42.47     518.00
 42.57     606.91
 42.67     592.00
 42.77     621.64
 42.87     626.00
 42.97     659.66
 43.07     607.00
 43.17     568.34
 43.27     600.00
 43.37     579.00
 43.47     519.00
 43.57     593.93
 43.67     534.00
 43.77     545.00
 43.87     567.83
 43.97     561.00
 44.07     545.00
 44.17     479.00
 44.27     541.00
 44.37     558.45
 44.47     485.17
 44.57     572.00
 44.67     570.00
 44.77     536.04
 44.87     558.00
 44.97     531.64
 45.07     524.88
 45.17     508.00
 45.27     590.00
 45.37     585.02
 45.47     548.00
 45.57     539.00
 45.67     605.46
 45.77     558.00
 45.87     558.06
 45.97     509.00
 46.07     547.13
 46.17     544.00
 46.27     512.14
 46.37     520.83
 46.47     509.83
 46.57     561.00
 46.67     552.00
 46.77     544.00
 46.87     529.00
 46.97     564.30
 47.07     555.00
 47.17     568.17
 47.27     535.00
 47.37     584.00
 47.47     586.27
 47.57     605.00
 47.67     585.00
 47.77     583.00
 47.87     573.42
 47.97     609.27
 48.07     618.76
 48.17     605.00
 48.27     684.10
 48.37     626.42
 48.47     583.05
 48.57     597.00
 48.67     578.00
 48.77     625.85
 48.87     561.00
 48.97     599.26
 49.07     592.00
 49.17     583.00
 49.27     640.27
 49.37     602.83
 49.47     661.68
 49.57     609.00
 49.67     789.61
 49.77     761.00
 49.87     888.00
 49.97    1163.00
 50.07    1466.00
 50.17    1784.00
 50.27    2231.24
 50.37    2374.00
 50.47    2250.06
 50.57    2226.29
 50.67    1860.00
 50.77    1517.00
 50.87    1266.88
 50.97    1100.04
 51.07     816.00
 51.17     719.00
 51.27     691.00
 51.37     723.25
 51.47     644.26
 51.57     655.00
 51.67     663.00
 51.77     683.84
 51.87     557.92
 51.97     657.99
 52.07     592.66
 52.17     570.00
 52.27     566.61
 52.37     533.88
 52.47     613.00
 52.57     644.00
 52.67     580.89
 52.77     635.00
 52.87     649.05
 52.97     601.00
 53.07     688.00
 53.17     756.00
 53.27     716.24
 53.37     914.00
 53.47    1005.00
 53.57    1107.00
 53.67    1194.41
 53.77    1198.15
 53.87    1182.48
 53.97    1150.00
 54.07    1123.04
 54.17     927.00
 54.27     861.00
 54.37     664.00
 54.47     628.89
 54.57     720.33
 54.67     687.00
 54.77     644.00
 54.87     587.44
 54.97     593.00
 55.07     597.24
 55.17     594.00
 55.27     605.00
 55.37     615.00
 55.47     603.00
 55.57     588.59
 55.67     681.12
 55.77     626.64
 55.87     603.00
 55.97     656.00
 56.07     654.00
 56.17     690.00
 56.27     816.88
 56.37     831.00
 56.47     906.00
 56.57    1142.00
 56.67    1553.80
 56.77    1724.00
 56.87    2063.44
 56.97    2355.00
 57.07    2537.00
 57.17    2736.00
 57.27    2458.00
 57.37    2111.00
 57.47    1884.00
 57.57    1586.00
 57.67    1314.00
 57.77    1070.00
 57.87     881.00
 57.97     907.68
 58.07     769.00
 58.17     764.00
 58.27     730.00
 58.37     696.00
 58.47     756.00
 58.57     834.34
 58.67     922.00
 58.77     973.32
 58.87    1000.85
 58.97    1065.35
 59.07    1197.82
 59.17    1220.00
 59.27    1223.00
 59.37    1222.00
 59.47    1139.19
 59.57    1252.00
 59.67    1189.00
 59.77    1198.00
 59.87    1118.03
 59.97    1232.00
 60.07    1274.00
 60.17    1292.00
 60.27    1476.00
 60.37    1611.91
 60.47    1661.02
 60.57    1598.00
 60.67    1450.97
 60.77    1377.23
 60.87    1249.00
 60.97    1106.00
 61.07    1007.00
 61.17     847.00
 61.27     796.00
 61.37     795.00
 61.47     728.28
 61.57     735.08
 61.67     781.00
 61.77     791.00
 61.87     833.00
 61.97     999.00
 62.07    1080.36
 62.17    1107.34
 62.27    1389.70
 62.37    1287.00
 62.47    1397.36
 62.57    1289.00
 62.67    1227.77
 62.77    1159.00
 62.87     971.97
 62.97     900.00
 63.07     901.17
 63.17     729.00
 63.27     760.39
 63.37     722.80
 63.47     684.98
 63.57     583.58
 63.67     680.14
 63.77     670.00
 63.87     642.00
 63.97     683.00
 64.07     601.44
 64.17     747.00
 64.27     728.47
 64.37     841.00
 64.47     858.00
 64.57     960.20
 64.67     927.92
 64.77    1019.00
 64.87    1103.50
 64.97    1100.00
 65.07    1046.00
 65.17    1071.00
 65.27    1033.64
 65.37     876.75
 65.47     845.00
 65.57     775.98
 65.67     748.65
 65.77     741.00
 65.87     695.49
 65.97     641.00
 66.07     667.00
 66.17     646.42
 66.27     606.00
 66.37     644.00
 66.47     607.00
 66.57     682.34
 66.67     629.00
 66.77     594.11
 66.87     627.00
 66.97     614.00
 67.07     602.20
 67.17     671.00
 67.27     697.00
 67.37     710.00
 67.47     787.00
 67.57     932.00
 67.67    1014.02
 67.77    1166.00
 67.87    1360.00
 67.97    1547.00
 68.07    1845.00
 68.17    2134.00
 68.27    2349.00
 68.37    2406.00
 68.47    2443.00
 68.57    2294.88
 68.67    2152.00
 68.77    2004.32
 68.87    1597.00
 68.97    1482.00
 69.07    1181.00
 69.17    1032.00
 69.27     941.78
 69.37     783.73
 69.47     777.55
 69.57     728.00
 69.67     698.40
 69.77     671.00
 69.87     684.29
 69.97     597.05
 70.07     651.00
 70.17     554.57
 70.27     585.00
 70.37     603.00
 70.47     614.00
 70.57     551.24
 70.67     616.00
 70.77     671.23
 70.87     592.13
 70.97     641.00
 71.07     596.73
 71.17     703.67
 71.27     703.00
 71.37     797.00
 71.47     826.42
 71.57     899.00
 71.67    1048.00
 71.77    1091.59
 71.87    1257.00
 71.97    1401.87
 72.07    1585.92
 72.17    1775.00
 72.27    1735.92
 72.37    1841.00
 72.47    1760.27
 72.57    1793.89
 72.67    1620.00
 72.77    1529.00
 72.87    1364.73
 72.97    1199.74
 73.07    1048.00
 73.17     937.00
 73.27     772.17
 73.37     829.82
 73.47     692.59
 73.57     699.00
 73.67     610.99
 73.77     658.00
 73.87     655.00
 73.97     650.00
 74.07     705.00
 74.17     630.52
 74.27     654.14
 74.37     646.21
 74.47     652.00
 74.57     627.00
 74.67     645.00
 74.77     633.62
 74.87     685.00
 74.97     661.00
 75.07     714.00
 75.17     666.00
 75.27     653.00
 75.37     631.00
 75.47     698.00
 75.57     666.00
 75.67     663.00
 75.77     554.00
 75.87     639.00
 75.97     598.00
 76.07     648.00
 76.17     621.00
 76.27     631.29
 76.37     659.00
 76.47     670.45
 76.57     688.00
 76.67     672.62
 76.77     748.00
 76.87     792.34
 76.97     771.00
 77.07     766.00
 77.17     695.00
 77.27     689.00
 77.37     725.00
 77.47     682.00
 77.57     647.00
 77.67     655.47
 77.77     555.00
 77.87     566.00
 77.97     578.00
 78.07     565.00
 78.17     547.00
 78.27     580.00
 78.37     552.00
 78.47     569.00
 78.57     572.00
 78.67     541.00
 78.77     540.00
 78.87     547.70
 78.97     565.00
 79.07     546.53
 79.17     603.46
 79.27     587.74
 79.37     549.00
 79.47     506.55
 79.57     588.97
 79.67     557.00
 79.77     586.00
 79.87     545.20
 79.97     573.00
 80.07     629.91
 80.17     552.00
 80.27     553.00
 80.37     520.13
 80.47     549.00
 80.57     609.00
 80.67     632.00
 80.77     593.00
 80.87     613.00
 80.97     708.79
 81.07     688.00
 81.17     668.73
 81.27     729.00
 81.37     685.21
 81.47     783.00
 81.57     713.00
 81.67     715.62
 81.77     799.00
 81.87     732.73
 81.97     854.67
 82.07     755.00
 82.17     744.00
 82.27     742.40
 82.37     721.00
 82.47     692.00
 82.57     682.82
 82.67     638.00
 82.77     748.00
 82.87     640.00
 82.97     607.00
 83.07     650.42
 83.17     645.73
 83.27     591.00
 83.37     568.00
 83.47     644.23
 83.57     562.00
 83.67     560.00
 83.77     619.41
 83.87     600.00
 83.97     554.00
 84.07     576.64
 84.17     609.00
 84.27     601.00
 84.37     585.00
 84.47     632.00
 84.57     562.00
 84.67     615.99
 84.77     608.00
 84.87     562.00
 84.97     545.08
 85.07     541.00
 85.17     509.00
 85.27     571.00
 85.37     574.00
 85.47     515.11
 85.57     534.00
 85.67     602.72
 85.77     586.00
 85.87     539.00
 85.97     524.00
 86.07     585.00
 86.17     570.00
 86.27     525.00
 86.37     528.00
 86.47     579.00
 86.57     569.79
 86.67     563.00
 86.77     565.00
 86.87     586.00
 86.97     580.90
 87.07     610.53
 87.17     600.00
 87.27     637.00
 87.37     616.00
 87.47     651.00
 87.57     673.00
 87.67     657.00
 87.77     666.00
 87.87     725.70
 87.97     612.27
 88.07     702.00
 88.17     693.00
 88.27     703.00
 88.37     656.00
 88.47     658.00
 88.57     627.89
 88.67     622.00
 88.77     673.07
 88.87     612.00
 88.97     633.00
 89.07     550.00
 89.17     602.00
 89.27     650.00
 89.37     628.00
 89.47     609.00
 89.57     659.84
 89.67     608.00
 89.77     594.00
 89.87     609.00
 89.97     610.00
 90.07     607.00
 90.17     631.96
 90.27     597.00
 90.37     597.00
 90.47     596.89
 90.57     593.00
 90.67     563.00
 90.77     539.00
 90.87     545.75
 90.97     607.70
 91.07     566.85
 91.17     576.00
 91.27     550.00
 91.37     572.74
 91.47     548.00
 91.57     536.00
 91.67     571.58
 91.77     570.55
 91.87     528.00
 91.97     503.63
 92.07     554.00
 92.17     538.00
 92.27     525.00
 92.37     520.11
 92.47     610.00
 92.57     560.15
 92.67     578.00
 92.77     580.00
 92.87     639.00
 92.97     702.46
 93.07     619.90
 93.17     640.00
 93.27     664.78
 93.37     771.61
 93.47     703.00
 93.57     760.60
 93.67     795.22
 93.77     779.64
 93.87     790.00
 93.97     852.28
 94.07     768.00
 94.17     804.00
 94.27     814.20
 94.37     888.53
 94.47     799.00
 94.57     901.00
 94.67     870.00
 94.77     941.24
 94.87     899.45
 94.97     990.51
 95.07     997.00
 95.17     934.00
 95.27     937.00
 95.37     935.35
 95.47     879.00
 95.57     913.00
 95.67     848.00
 95.77     875.66
 95.87     849.00
 95.97     824.00
 96.07     823.25
 96.17     791.00
 96.27     820.06
 96.37     727.00
 96.47     691.92
 96.57     805.00
 96.67     778.00
 96.77     813.43
 96.87     841.00
 96.97     933.00
 97.07     901.00
 97.17    1005.00
 97.27    1124.00
 97.37    1082.00
 97.47    1116.78
 97.57    1299.00
 97.67    1297.00
 97.77    1410.00
 97.87    1332.58
 97.97    1490.00
 98.07    1542.00
 98.17    1496.00
 98.27    1503.99
 98.37    1452.00
 98.47    1443.47
 98.57    1301.00
 98.67    1283.00
 98.77    1183.00
 98.87    1108.16
 98.97    1045.00
 99.07    1005.00
 99.17    1037.46
 99.27     949.00
 99.37     923.00
 99.47     977.93
 99.57     948.00
 99.67     861.00
 99.77     972.00
 99.87    1011.00
 99.97    1044.00
100.07    1182.64
100.17    1231.00
100.27    1305.00
100.37    1402.00
100.47    1494.07
100.57    1643.25
100.67    1660.00
100.77    1861.00
100.87    1832.00
100.97    1958.34
101.07    1853.35
101.17    1962.00
101.27    2008.00
101.37    1944.24
101.47    1973.52
101.57    1953.50
101.67    1860.41
101.77    1936.00
101.87    1765.84
101.97    1698.00
102.07    1677.06
102.17    1500.66
102.27    1546.90
102.37    1386.00
102.47    1395.10
102.57    1269.00
102.67    1244.00
102.77    1262.00
102.87    1163.70
102.97    1189.00
103.07    1174.00
103.17    1178.00
103.27    1084.00
103.37    1044.00
103.47    1018.00
103.57    1019.06
103.67     990.97
103.77     938.00
103.87     974.70
103.97     828.00
104.07     843.00
104.17     767.00
104.27     750.00
104.37     758.00
104.47     772.06
104.57     662.93
104.67     692.00
104.77     703.04
104.87     658.00
104.97     628.00
105.07     609.00
105.17     633.03
105.27     596.00
105.37     564.00
105.47     576.00
105.57     566.00
105.67     596.18
105.77     573.00
105.87     521.17
105.97     606.00
106.07     605.00
106.17     601.00
106.27     560.00
106.37     578.00
106.47     556.00
106.57     581.00
106.67     598.00
106.77     622.00
106.87     573.46
106.97     625.56
107.07     641.00
107.17     685.00
107.27     729.89
107.37     692.00
107.47     725.00
107.57     673.00
107.67     695.00
107.77     768.69
107.87     726.00
107.97     675.00
108.07     704.90
108.17     707.00
108.27     756.00
108.37     711.00
108.47     795.10
108.57     680.00
108.67     743.00
108.77     688.00
108.87     721.00
108.97     724.00
109.07     707.18
109.17     693.84
109.27     766.00
109.37     734.00
109.47     662.76
109.57     739.83
109.67     729.00
109.77     667.00
109.87     734.00
109.97     713.52
110.07     725.00
110.17     735.80
110.27     673.11
110.37     707.00
110.47     670.00
110.57     680.00
110.67     610.36
110.77     604.11
110.87     639.00
110.97     615.00
111.07     612.00
111.17     613.44
111.27     624.92
111.37     623.00
111.47     566.00
111.57     614.00
111.67     599.40
111.77     561.00
111.87     565.17
111.97     585.00
112.07     538.41
112.17     557.26
112.27     626.28
112.37     637.00
112.47     573.79
112.57     594.00
112.67     572.00
112.77     578.00
112.87     582.00
112.97     547.36
113.07     549.36
113.17     575.65
113.27     600.92
113.37     609.00
113.47     578.00
113.57     636.81
113.67     667.08
113.77     616.00
113.87     643.00
113.97     656.00
114.07     646.78
114.17     713.00
114.27     673.15
114.37     743.00
114.47     768.00
114.57     813.71
114.67     780.54
114.77     902.00
114.87     968.00
114.97    1081.00
115.07    1211.07
115.17    1262.60
115.27    1534.00
115.37    1588.00
115.47    1873.00
115.57    2014.00
115.67    2290.00
115.77    2442.00
115.87    2616.74
115.97    3130.00
116.07    3286.26
116.17    3688.00
116.27    4096.03
116.37    4630.07
116.47    4915.60
116.57    5174.00
116.67    5451.00
116.77    6013.00
116.87    6469.77
116.97    6475.00
117.07    6809.00
117.17    7047.00
117.27    7125.23
117.37    7174.00
117.47    7057.00
117.57    6935.00
117.67    6930.00
117.77    6490.00
117.87    6166.49
117.97    5984.00
118.07    5404.00
118.17    5300.79
118.27    4837.00
118.37    4561.55
118.47    4320.00
118.57    3839.00
118.67    3674.00
118.77    3182.22
118.87    2877.00
118.97    2478.00
119.07    2356.00
119.17    2088.00
119.27    1828.00
119.37    1691.00
119.47    1612.83
119.57    1396.00
119.67    1236.00
119.77    1233.00
119.87    1149.00
119.97    1060.52
120.07    1043.92
120.17     939.00
120.27     939.99
120.37     833.00
120.47     794.00
120.57     756.00
120.67     766.00
120.77     783.51
120.87     744.06
120.97     658.00
121.07     707.00
121.17     666.00
121.27     683.00
121.37     635.28
121.47     670.28
121.57     627.00
121.67     638.00
121.77     586.83
121.87     608.00
121.97     632.52
122.07     640.00
122.17     646.00
122.27     603.00
122.37     656.00
122.47     591.00
122.57     671.00
122.67     704.63
122.77     629.00
122.87     647.00
122.97     588.79
123.07     671.00
123.17     677.00
123.27     670.00
123.37     659.00
123.47     709.00
123.57     675.00
123.67     723.50
123.77     704.59
123.87     631.95
123.97     633.78
124.07     694.00
124.17     669.00
124.27     644.00
124.37     627.00
124.47     680.00
124.57     603.00
124.67     681.00
124.77     700.85
124.87     582.00
124.97     674.00
