  9.97     685.00
 10.07     692.00
 10.17     685.00
 10.27     705.00
 10.37     674.00
 10.47     599.62
 10.57     643.00
 10.67     659.00
 10.77     648.00
 10.87     624.00
 10.97     627.00
 11.07     673.00
 11.17     662.84
 11.27     680.00
 11.37     670.00
 11.47     589.69
 11.57     676.00
 11.67     692.76
 11.77     701.00
 11.87     628.44
 11.97     687.10
 12.07     735.42
 12.17     780.19
 12.27     772.00
 12.37     770.00
 12.47     728.00
 12.57     660.09
 12.67     688.00
 12.77     653.00
 12.87     651.00
 12.97     669.00
 13.07     642.00
 13.17     586.00
 13.27     679.25
 13.37     622.00
 13.47     562.00
 13.57     617.18
 13.67     639.00
 13.77     644.00
 13.87     637.00
 13.97     637.00
 14.07     591.00
 14.17     611.00
 14.27     614.00
 14.37     605.59
 14.47     622.00
 14.57     619.00
 14.67     618.00
 14.77     608.00
 14.87     608.00
 14.97     586.00
 15.07     610.00
 15.17     612.67
 15.27     629.00
 15.37     588.24
 15.47     579.00
 15.57     636.00
 15.67     609.77
 15.77     652.92
 15.87     617.32
 15.97     664.53
 16.07     642.71
 16.17     617.04
 16.27     647.00
 16.37     639.00
 16.47     629.00
 16.57     608.00
 16.67     622.00
 16.77     622.00
 16.87     673.85
 16.97     627.81
 17.07     632.25
 17.17     599.00
 17.27     630.95
 17.37     581.44
 17.47     603.00
 17.57     670.75
 17.67     630.00
 17.77     630.00
 17.87     596.00
 17.97     627.74
 18.07     621.06
 18.17     651.22
 18.27     620.00
 18.37     617.00
 18.47     603.00
 18.57     594.54
 18.67     620.00
 18.77     568.00
 18.87     599.00
 18.97     605.00
 19.07     593.95
 19.17     640.96
 19.27     603.45
 19.37     640.32
 19.47     596.31
 19.57     623.00
 19.67     621.00
 19.77     669.33
 19.87     638.00
 19.97     592.00
 20.07     643.18
 20.17     678.46
 20.27     627.00
 20.37     583.13
 20.47     609.00
 20.57     572.75
 20.67     627.00
 20.77     637.38
 20.87     595.00
 20.97     612.00
 21.07     588.00
 21.17     656.29
 21.27     614.00
 21.37     614.00
 21.47     580.00
 21.57     630.00
 21.67     623.00
 21.77     616.00
 21.87     591.00
 21.97     624.00
 22.07     583.84
 22.17     607.00
 22.27     620.00
 22.37     568.67
 22.47     598.00
 22.57     606.00
 22.67     588.79
 22.77     601.23
 22.87     654.07
 22.97     608.00
 23.07     663.56
 23.17     588.90
 23.27     650.00
 23.37     578.49
 23.47     643.00
 23.57     613.55
 23.67     625.00
 23.77     626.00
 23.87     597.21
 23.97     623.00
 24.07     661.00
 24.17     610.39
 24.27     639.18
 24.37     641.00
 24.47     680.56
 24.57     695.00
 24.67     606.46
 24.77     715.00
 24.87     654.50
 24.97     767.00
 25.07     735.00
 25.17     657.01
 25.27     648.29
 25.37     611.94
 25.47     650.00
 25.57     653.00
 25.67     586.47
 25.77     692.00
 25.87     584.20
 25.97     613.45
 26.07     593.78
 26.17     647.60
 26.27     673.00
 26.37     573.32
 26.47     722.00
 26.57     563.30
 26.67     621.12
 26.77     716.00
 26.87     684.33
 26.97     685.99
 27.07     710.00
 27.17     705.00
 27.27     700.00
 27.37     693.00
 27.47     667.45
 27.57     653.79
 27.67     757.24
 27.77     797.00
 27.87     896.00
 27.97     882.00
 28.07    1122.00
 28.17    1512.55
 28.27    1736.74
 28.37    1926.00
 28.47    1817.00
 28.57    1556.46
 28.67    1458.56
 28.77    1203.00
 28.87    1338.99
 28.97    1363.00
 29.07    1416.00
 29.17    1292.29
 29.27    1172.22
 29.37    1014.00
 29.47     928.00
 29.57     837.00
 29.67     799.00
 29.77     759.00
 29.87     748.00
 29.97     781.00
 30.07     763.00
 30.17     699.00
 30.27     663.00
 30.37     720.00
 30.47     678.00
 30.57     691.00
 30.67     665.28
 30.77     659.72
 30.87     680.12
 30.97     621.48
 31.07     643.64
 31.17     731.00
 31.27     735.00
 31.37     675.00
 31.47     597.91
 31.57     648.76
 31.67     580.05
 31.77     688.00
 31.87     611.00
 31.97     621.00
 32.07     611.00
 32.17     567.00
 32.27     551.71
 32.37     625.00
 32.47     589.13
 32.57     612.00
 32.67     571.40
 32.77     586.78
 32.87     599.26
 32.97     585.98
 33.07     647.00
 33.17     597.14
 33.27     656.79
 33.37     614.00
 33.47     565.00
 33.57     639.00
 33.67     660.00
 33.77     679.23
 33.87     717.01
 33.97     867.19
 34.07     991.00
 34.17    1119.00
 34.27    1122.01
 34.37     931.89
 34.47     899.23
 34.57     792.90
 34.67     715.00
 34.77     668.00
 34.87     586.11
 34.97     677.00
 35.07     597.00
 35.17     628.00
 35.27     587.00
 35.37     521.00
 35.47     591.00
 35.57     567.55
 35.67     558.00
 35.77     568.95
 35.87     580.45
 35.97     545.00
 36.07     587.38
 36.17     519.00
 36.27     554.00
 36.37     592.00
 36.47     562.00
 36.57     577.00
 36.67     557.00
 36.77     596.12
 36.87     526.17
 36.97     567.00
 37.07     584.97
 37.17     552.00
 37.27     553.49
 37.37     560.00
 37.47     532.51
 37.57     540.36
 37.67     591.00
 37.77     587.00
 37.87     598.00
 37.97     564.00
 38.07     629.91
 38.17     642.49
 38.27     581.00
 38.37     581.00
 38.47     538.00
 38.57     572.00
 38.67     606.43
 38.77     549.00
 38.87     535.00
 38.97     560.65
 39.07     541.00
 39.17     575.00
 39.27     525.00
 39.37     552.96
 39.47     558.51
 39.57     544.00
 39.67     541.00
 39.77     555.00
 39.87     564.00
 39.97     522.00
 40.07     540.00
 40.17     539.00
 40.27     589.26
 40.37     579.43
 40.47     545.57
 40.57     513.00
 40.67     513.00
 40.77     561.80
 40.87     542.17
 40.97     515.00
 41.07     525.00
 41.17     536.00
 41.27     547.00
 41.37     521.23
 41.47     575.00
 41.57     509.00
 41.67     516.00
 41.77     531.00
 41.87     570.00
 41.97     566.35
 42.07     525.00
 42.17     524.00
 42.27     525.21
 42.37     560.00
 42.47     587.00
 42.57     556.12
 42.67     639.00
 42.77     657.00
 42.87     612.00
 42.97     645.42
 43.07     661.11
 43.17     583.00
 43.27     626.00
 43.37     587.00
 43.47     553.00
 43.57     548.00
 43.67     531.00
 43.77     526.00
 43.87     476.00
 43.97     566.00
 44.07     581.00
 44.17     505.07
 44.27     537.00
 44.37     547.00
 44.47     537.00
 44.57     577.00
 44.67     586.00
 44.77     557.00
 44.87     536.00
 44.97     551.00
 45.07     490.18
 45.17     531.34
 45.27     581.00
 45.37     553.00
 45.47     496.05
 45.57     548.00
 45.67     531.00
 45.77     515.00
 45.87     581.00
 45.97     584.94
 46.07     511.00
 46.17     575.19
 46.27     566.00
 46.37     528.00
 46.47     542.60
 46.57     548.00
 46.67     535.73
 46.77     532.21
 46.87     496.50
 46.97     523.00
 47.07     560.00
 47.17     529.00
 47.27     548.00
 47.37     562.00
 47.47     585.00
 47.57     596.00
 47.67     599.10
 47.77     597.00
 47.87     612.00
 47.97     607.12
 48.07     592.00
 48.17     613.00
 48.27     650.00
 48.37     650.82
 48.47     575.00
 48.57     592.00
 48.67     589.98
 48.77     596.00
 48.87     571.00
 48.97     587.00
 49.07     621.00
 49.17     597.04
 49.27     661.12
 49.37     619.00
 49.47     641.91
 49.57     619.00
 49.67     777.65
 49.77     764.00
 49.87     850.00
 49.97    1131.31
 50.07    1465.00
 50.17    1908.00
 50.27    2052.00
 50.37    2459.00
 50.47    2437.01
 50.57    2319.48
 50.67    1871.92
 50.77    1546.46
 50.87    1171.00
 50.97    1047.14
 51.07     930.37
 51.17     753.00
 51.27     777.00
 51.37     704.00
 51.47     751.30
 51.57     678.12
 51.67     661.54
 51.77     622.00
 51.87     664.00
 51.97     628.00
 52.07     623.00
 52.17     557.10
 52.27     633.00
 52.37     600.33
 52.47     642.00
 52.57     602.96
 52.67     628.00
 52.77     655.00
 52.87     572.00
 52.97     647.00
 53.07     733.00
 53.17     800.00
 53.27     806.00
 53.37     867.78
 53.47     993.00
 53.57    1074.88
 53.67    1233.45
 53.77    1238.00
 53.87    1285.00
 53.97    1210.43
 54.07    1043.00
 54.17     963.00
 54.27     868.00
 54.37     739.34
 54.47     682.00
 54.57     631.29
 54.67     662.00
 54.77     626.00
 54.87     667.88
 54.97     627.32
 55.07     644.39
 55.17     636.93
 55.27     556.52
 55.37     602.00
 55.47     635.00
 55.57     632.90
 55.67     606.00
 55.77     665.00
 55.87     683.00
 55.97     600.21
 56.07     685.00
 56.17     735.00
 56.27     776.00
 56.37     887.46
 56.47     976.00
 56.57    1199.88
 56.67    1346.00
 56.77    1760.89
 56.87    2062.00
 56.97    2245.00
 57.07    2501.00
 57.17    2561.20
 57.27    2383.56
 57.37    2154.54
 57.47    2051.00
 57.57    1610.00
 57.67    1408.13
 57.77    1097.61
 57.87     920.00
 57.97     869.00
 58.07     798.00
 58.17     773.00
 58.27     735.00
 58.37     753.00
 58.47     827.38
 58.57     804.93
 58.67     876.00
 58.77     980.03
 58.87    1017.00
 58.97    1110.79
 59.07    1116.00
 59.17    1257.46
 59.27    1264.00
 59.37    1227.99
 59.47    1248.00
 59.57    1214.00
 59.67    1237.00
 59.77    1183.00
 59.87    1168.00
 59.97    1181.00
 60.07    1196.00
 60.17    1312.00
 60.27    1422.00
 60.37    1492.00
 60.47    1560.00
 60.57    1625.00
 60.67    1462.00
 60.77    1401.93
 60.87    1252.36
 60.97    1135.00
 61.07    1039.00
 61.17     870.00
 61.27     799.00
 61.37     740.00
 61.47     739.00
 61.57     681.91
 61.67     808.00
 61.77     737.26
 61.87     809.38
 61.97     991.60
 62.07    1002.00
 62.17    1196.00
 62.27    1352.12
 62.37    1346.00
 62.47    1338.00
 62.57    1334.21
 62.67    1264.00
 62.77    1155.73
 62.87    1129.49
 62.97     963.32
 63.07     823.00
 63.17     729.00
 63.27     680.00
 63.37     642.55
 63.47     678.00
 63.57     655.00
 63.67     637.00
 63.77     638.00
 63.87     659.00
 63.97     668.00
 64.07     682.63
 64.17     698.00
 64.27     715.00
 64.37     785.00
 64.47     870.00
 64.57     936.00
 64.67     989.00
 64.77    1017.09
 64.87    1090.00
 64.97    1141.00
 65.07    1059.66
 65.17    1025.87
 65.27    1038.00
 65.37     958.00
 65.47     962.00
 65.57     839.43
 65.67     808.00
 65.77     752.00
 65.87     670.00
 65.97     638.00
 66.07     733.34
 66.17     614.04
 66.27     600.26
 66.37     655.02
 66.47     639.00
 66.57     609.00
 66.67     585.00
 66.77     646.55
 66.87     612.00
 66.97     661.00
 67.07     637.00
 67.17     689.53
 67.27     655.00
 67.37     713.00
 67.47     778.00
 67.57     807.00
 67.67     958.25
 67.77    1133.00
 67.87    1327.97
 67.97    1585.00
 68.07    1791.00
 68.17    2005.31
 68.27    2241.19
 68.37    2328.68
 68.47    2458.23
 68.57    2336.00
 68.67    2195.00
 68.77    1967.56
 68.87    1711.00
 68.97    1540.21
 69.07    1236.00
 69.17    1019.00
 69.27     959.00
 69.37     815.43
 69.47     766.00
 69.57     759.00
 69.67     665.00
 69.77     641.00
 69.87     665.00
 69.97     686.08
 70.07     578.54
 70.17     657.00
 70.27     667.00
 70.37     641.00
 70.47     611.00
 70.57     612.38
 70.67     669.81
 70.77     628.00
 70.87     655.00
 70.97     621.00
 71.07     685.00
 71.17     632.00
 71.27     696.00
 71.37     799.78
 71.47     807.39
 71.57     925.91
 71.67     944.23
 71.77    1083.01
 71.87    1257.74
 71.97    1362.00
 72.07    1580.37
 72.17    1737.00
 72.27    1791.00
 72.37    1912.00
 72.47    1891.00
 72.57    1740.59
 72.67    1715.00
 72.77    1591.00
 72.87    1411.16
 72.97    1266.00
 73.07    1057.16
 73.17    1004.52
 73.27     842.07
 73.37     790.00
 73.47     800.00
 73.57     758.00
 73.67     688.00
 73.77     682.00
 73.87     632.00
 73.97     624.00
 74.07     575.19
 74.17     637.00
 74.27     612.00
 74.37     553.60
 74.47     657.00
 74.57     676.00
 74.67     599.25
 74.77     559.99
 74.87     622.36
 74.97     678.00
 75.07     657.00
 75.17     613.00
 75.27     651.00
 75.37     668.00
 75.47     642.00
 75.57     579.64
 75.67     632.46
 75.77     595.00
 75.87     621.00
 75.97     612.00
 76.07     612.00
 76.17     639.12
 76.27     707.00
 76.37     672.00
 76.47     725.00
 76.57     685.00
 76.67     756.00
 76.77     789.00
 76.87     809.26
 76.97     697.21
 77.07     795.00
 77.17     750.29
 77.27     761.09
 77.37     692.00
 77.47     694.98
 77.57     695.63
 77.67     616.00
 77.77     649.00
 77.87     565.31
 77.97     622.98
 78.07     568.00
 78.17     590.03
 78.27     522.11
 78.37     535.00
 78.47     549.00
 78.57     565.00
 78.67     529.00
 78.77     552.00
 78.87     494.00
 78.97     602.63
 79.07     590.53
 79.17     566.00
 79.27     598.61
 79.37     529.78
 79.47     538.00
 79.57     555.00
 79.67     544.00
 79.77     587.48
 79.87     598.06
 79.97     577.00
 80.07     557.00
 80.17     560.00
 80.27     629.00
 80.37     591.00
 80.47     578.61
 80.57     635.00
 80.67     622.74
 80.77     705.00
 80.87     639.02
 80.97     665.62
 81.07     724.00
 81.17     744.00
 81.27     809.05
 81.37     824.87
 81.47     854.00
 81.57     805.00
 81.67     848.00
 81.77     872.21
 81.87     820.00
 81.97     806.91
 82.07     807.00
 82.17     818.00
 82.27     783.00
 82.37     760.00
 82.47     779.34
 82.57     692.00
 82.67     654.00
 82.77     723.21
 82.87     568.00
 82.97     595.00
 83.07     610.00
 83.17     619.00
 83.27     612.00
 83.37     576.00
 83.47     608.07
 83.57     555.00
 83.67     561.00
 83.77     566.00
 83.87     630.31
 83.97     635.71
 84.07     539.00
 84.17     637.46
 84.27     600.00
 84.37     626.00
 84.47     597.00
 84.57     644.50
 84.67     606.00
 84.77     608.00
 84.87     609.27
 84.97     578.00
 85.07     534.00
 85.17     528.40
 85.27     561.00
 85.37     609.79
 85.47     571.00
 85.57     559.61
 85.67     536.00
 85.77     574.00
 85.87     535.00
 85.97     580.39
 86.07     500.32
 86.17     512.05
 86.27     548.00
 86.37     575.00
 86.47     560.00
 86.57     612.21
 86.67     590.00
 86.77     584.65
 86.87     525.00
 86.97     561.74
 87.07     603.00
 87.17     563.09
 87.27     664.00
 87.37     657.00
 87.47     629.00
 87.57     674.97
 87.67     658.00
 87.77     625.00
 87.87     660.00
 87.97     647.00
 88.07     678.22
 88.17     676.00
 88.27     658.00
 88.37     697.00
 88.47     636.00
 88.57     592.00
 88.67     609.98
 88.77     611.30
 88.87     565.00
 88.97     601.00
 89.07     602.11
 89.17     568.00
 89.27     618.00
 89.37     588.93
 89.47     644.00
 89.57     566.00
 89.67     606.91
 89.77     664.94
 89.87     642.00
 89.97     629.63
 90.07     582.57
 90.17     582.00
 90.27     619.00
 90.37     611.00
 90.47     636.00
 90.57     575.00
 90.67     535.00
 90.77     553.00
 90.87     595.74
 90.97     546.00
 91.07     574.00
 91.17     550.45
 91.27     505.00
 91.37     563.36
 91.47     506.98
 91.57     569.00
 91.67     539.00
 91.77     572.73
 91.87     477.00
 91.97     556.00
 92.07     554.00
 92.17     510.50
 92.27     567.00
 92.37     585.29
 92.47     617.00
 92.57     570.00
 92.67     632.00
 92.77     583.00
 92.87     598.00
 92.97     652.08
 93.07     660.00
 93.17     671.00
 93.27     640.00
 93.37     650.51
 93.47     660.00
 93.57     713.00
 93.67     751.00
 93.77     821.05
 93.87     846.00
 93.97     802.00
 94.07     834.00
 94.17     875.61
 94.27     878.00
 94.37     797.19
 94.47     894.00
 94.57     903.94
 94.67     930.00
 94.77     888.25
 94.87     915.00
 94.97     975.15
 95.07     934.00
 95.17     910.38
 95.27     952.00
 95.37     951.00
 95.47     852.23
 95.57     929.58
 95.67     860.39
 95.77     866.00
 95.87     871.94
 95.97     809.00
 96.07     760.33
 96.17     790.00
 96.27     721.96
 96.37     793.00
 96.47     703.00
 96.57     799.32
 96.67     757.34
 96.77     835.89
 96.87     818.00
 96.97     867.00
 97.07     867.00
 97.17     912.68
 97.27     982.00
 97.37    1055.00
 97.47    1197.00
 97.57    1294.41
 97.67    1325.00
 97.77    1345.00
 97.87    1390.60
 97.97    1472.00
 98.07    1484.00
 98.17    1497.00
 98.27    1466.00
 98.37    1448.00
 98.47    1437.00
 98.57    1315.00
 98.67    1277.00
 98.77    1215.00
 98.87    1165.39
 98.97    1099.00
 99.07    1090.00
 99.17    1047.00
 99.27     905.56
 99.37    1013.03
 99.47     937.01
 99.57     918.00
 99.67     897.00
 99.77     960.00
 99.87     988.00
 99.97    1037.00
100.07    1086.77
100.17    1153.00
100.27    1292.00
100.37    1274.01
100.47    1453.00
100.57    1572.00
100.67    1586.00
100.77    1707.00
100.87    1841.29
100.97    1837.00
101.07    2002.00
101.17    1961.00
101.27    1911.43
101.37    1937.75
101.47    2018.00
101.57    2015.00
101.67    1961.37
101.77    1891.00
101.87    1919.48
101.97    1675.11
102.07    1634.00
102.17    1570.00
102.27    1437.00
102.37    1534.00
102.47    1379.00
102.57    1375.00
102.67    1342.00
102.77    1226.20
102.87    1308.46
102.97    1281.44
103.07    1170.00
103.17    1192.50
103.27    1133.88
103.37    1122.43
103.47    1083.35
103.57    1063.00
103.67    1072.89
103.77     944.00
103.87     931.00
103.97     932.00
104.07     853.90
104.17     798.00
104.27     792.00
104.37     727.00
104.47     713.00
104.57     710.00
104.67     651.86
104.77     648.28
104.87     647.00
104.97     578.39
105.07     619.00
105.17     582.00
105.27     597.00
105.37     618.00
105.47     573.82
105.57     538.00
105.67     580.00
105.77     578.00
105.87     562.00
105.97     581.00
106.07     612.12
106.17     585.00
106.27     621.00
106.37     588.00
106.47     590.00
106.57     591.00
106.67     664.00
106.77     616.14
106.87     618.00
106.97     611.72
107.07     631.00
107.17     605.76
107.27     647.44
107.37     648.31
107.47     680.96
107.57     697.00
107.67     653.13
107.77     737.00
107.87     699.00
107.97     726.60
108.07     699.27
108.17     714.82
108.27     700.00
108.37     706.00
108.47     716.00
108.57     730.00
108.67     676.20
108.77     724.00
108.87     706.00
108.97     727.00
109.07     675.00
109.17     753.00
109.27     782.94
109.37     704.00
109.47     760.00
109.57     729.00
109.67     788.26
109.77     722.00
109.87     720.40
109.97     708.00
110.07     654.24
110.17     673.00
110.27     686.11
110.37     664.00
110.47     666.45
110.57     666.00
110.67     638.62
110.77     640.81
110.87     637.49
110.97     598.48
111.07     611.00
111.17     585.00
111.27     600.00
111.37     586.00
111.47     576.00
111.57     611.00
111.67     548.00
111.77     549.00
111.87     617.00
111.97     602.42
112.07     519.50
112.17     565.00
112.27     551.00
112.37     600.00
112.47     608.00
112.57     573.77
112.67     553.14
112.77     579.00
112.87     581.70
112.97     641.58
113.07     589.00
113.17     586.47
113.27     579.00
113.37     569.54
113.47     573.50
113.57     628.00
113.67     625.00
113.77     600.42
113.87     634.00
113.97     614.97
114.07     701.00
114.17     665.00
114.27     751.12
114.37     710.00
114.47     707.00
114.57     785.54
114.67     792.25
114.77     886.68
114.87     905.00
114.97     959.00
115.07    1094.00
115.17    1223.00
115.27    1425.00
115.37    1543.00
115.47    1644.00
115.57    1789.40
115.67    2100.00
115.77    2498.00
115.87    2588.78
115.97    2853.76
116.07    3240.60
116.17    3476.23
116.27    3835.14
116.37    4338.00
116.47    4700.00
116.57    5073.11
116.67    5509.00
116.77    5765.00
116.87    6066.68
116.97    6540.79
117.07    6636.00
117.17    7082.60
117.27    7245.00
117.37    7086.00
117.47    7122.69
117.57    6845.00
117.67    6946.78
117.77    6598.00
117.87    6684.59
117.97    6028.00
118.07    5845.00
118.17    5472.00
118.27    4989.00
118.37    4741.00
118.47    4382.00
118.57    3988.00
118.67    3759.00
118.77    3465.00
118.87    3060.00
118.97    2773.00
119.07    2417.00
119.17    2175.00
119.27    2036.19
119.37    1918.61
119.47    1691.00
119.57    1492.00
119.67    1389.00
119.77    1240.87
119.87    1149.29
119.97    1104.71
120.07    1069.00
120.17     955.13
120.27     903.00
120.37     844.06
120.47     799.77
120.57     823.50
120.67     784.07
120.77     727.00
120.87     765.00
120.97     737.00
121.07     672.00
121.17     637.33
121.27     626.47
121.37     632.00
121.47     621.75
121.57     613.65
121.67     622.00
121.77     648.00
121.87     633.00
121.97     622.00
122.07     686.76
122.17     649.00
122.27     605.00
122.37     649.00
122.47     589.00
122.57     618.00
122.67     607.26
122.77     634.00
122.87     702.84
122.97     611.85
123.07     695.00
123.17     668.00
123.27     625.47
123.37     666.00
123.47     702.00
123.57     694.00
123.67     668.00
123.77     718.00
123.87     645.29
123.97     633.62
124.07     724.60
124.17     635.00
124.27     708.00
124.37     672.00
124.47     612.00
124.57     689.80
124.67     654.00
124.77     678.00
124.87     657.00
124.97     676.00
