  9.97     586.59
 10.07     586.78
 10.17     642.00
 10.27     670.00
 10.37     601.21
 10.47     646.00
 10.57     703.00
 10.67     623.94
 10.77     667.00
 10.87     611.13
 10.97     667.95
 11.07     668.00
 11.17     658.03
 11.27     678.00
 11.37     642.00
 11.47     653.89
 11.57     601.99
 11.67     675.00
 11.77     685.00
 11.87     600.42
 11.97     758.00
 12.07     680.73
 12.17     791.00
 12.27     763.34
 12.37     811.00
 12.47     711.00
 12.57     732.15
 12.67     664.00
 12.77     617.00
 12.87     666.12
 12.97     649.75
 13.07     588.52
 13.17     596.59
 13.27     637.00
 13.37     627.00
 13.47     604.00
 13.57     596.00
 13.67     644.00
 13.77     660.38
 13.87     678.15
 13.97     601.52
 14.07     600.00
 14.17     597.00
 14.27     586.00
 14.37     589.00
 14.47     595.47
 14.57     627.00
 14.67     613.00
 14.77     621.89
 14.87     565.00
 14.97     602.00
 15.07     655.17
 15.17     568.00
 15.27     602.00
 15.37     589.32
 15.47     617.00
 15.57     668.81
 15.67     641.32
 15.77     628.00
 15.87     684.99
 15.97     634.41
 16.07     655.00
 16.17     576.09
 16.27     659.11
 16.37     588.00
 16.47     620.97
 16.57     589.28
 16.67     558.00
 16.77     669.35
 16.87     604.00
 16.97     606.00
 17.07     593.00
 17.17     566.00
 17.27     644.00
 17.37     565.00
 17.47     592.07
 17.57     588.00
 17.67     543.00
 17.77     597.00
 17.87     644.00
 17.97     591.00
 18.07     605.00
 18.17     631.39
 18.27     576.90
 18.37     642.47
 18.47     610.00
 18.57     630.45
 18.67     585.00
 18.77     603.00
 18.87     597.00
 18.97     600.00
 19.07     590.00
 19.17     604.00
 19.27     596.00
 19.37     632.00
 19.47     559.00
 19.57     599.58
 19.67     684.29
 19.77     689.73
 19.87     591.00
 19.97     614.00
 20.07     593.00
 20.17     632.25
 20.27     608.00
 20.37     658.63
 20.47     633.88
 20.57     586.00
 20.67     586.00
 20.77     548.00
 20.87     619.00
 20.97     564.00
 21.07     610.08
 21.17     585.00
 21.27     626.00
 21.37     588.00
 21.47     617.00
 21.57     653.80
 21.67     635.00
 21.77     634.00
 21.87     571.38
 21.97     614.33
 22.07     679.49
 22.17     576.00
 22.27     568.00
 22.37     670.00
 22.47     573.00
 22.57     624.32
 22.67     602.00
 22.77     612.00
 22.87     613.83
 22.97     564.49
 23.07     550.00
 23.17     607.33
 23.27     641.00
 23.37     657.42
 23.47     617.00
 23.57     615.00
 23.67     612.28
 23.77     607.00
 23.87     620.00
 23.97     571.53
 24.07     650.48
 24.17     599.00
 24.27     609.00
 24.37     616.11
 24.47     654.00
 24.57     597.30
 24.67     620.13
 24.77     654.67
 24.87     684.00
 24.97     761.00
 25.07     702.00
 25.17     717.36
 25.27     635.58
 25.37     691.30
 25.47     649.00
 25.57     680.57
 25.67     625.00
 25.77     631.00
 25.87     649.45
 25.97     681.00
 26.07     590.02
 26.17     628.99
 26.27     646.76
 26.37     656.00
 26.47     551.54
 26.57     609.98
 26.67     641.00
 26.77     729.00
 26.87     702.00
 26.97     722.00
 27.07     650.50
 27.17     746.00
 27.27     665.00
 27.37     741.00
 27.47     686.53
 27.57     702.00
 27.67     736.00
 27.77     727.00
 27.87     745.00
 27.97     719.00
 28.07     822.00
 28.17     780.78
 28.27     905.49
 28.37    1057.00
 28.47    1043.00
 28.57     905.65
 28.67     912.00
 28.77     911.00
 28.87     777.72
 28.97     976.00
 29.07     967.00
 29.17     993.00
 29.27     813.40
 29.37     827.00
 29.47     798.00
 29.57     738.00
 29.67     761.00
 29.77     724.00
 29.87     724.00
 29.97     724.00
 30.07     702.00
 30.17     703.00
 30.27     550.21
 30.37     560.67
 30.47     690.00
 30.57     582.98
 30.67     671.00
 30.77     657.16
 30.87     637.65
 30.97     717.71
 31.07     664.61
 31.17     708.26
 31.27     628.00
 31.37     627.01
 31.47     585.28
 31.57     609.39
 31.67     634.00
 31.77     613.00
 31.87     627.64
 31.97     611.00
 32.07     681.00
 32.17     547.61
 32.27     616.00
 32.37     608.00
 32.47     638.00
 32.57     621.00
 32.67     615.00
 32.77     630.00
 32.87     632.00
 32.97     555.57
 33.07     558.17
 33.17     573.00
 33.27     578.00
 33.37     641.00
 33.47     558.00
 33.57     675.00
 33.67     708.00
 33.77     754.22
 33.87     720.00
 33.97     835.00
 34.07    1017.00
 34.17    1025.00
 34.27    1082.00
 34.37    1007.00
 34.47     820.00
 34.57     752.28
 34.67     725.00
 34.77     603.00
 34.87     626.00
 34.97     629.00
 35.07     564.99
 35.17     597.00
 35.27     629.00
 35.37     590.00
 35.47     622.27
 35.57     568.00
 35.67     541.00
 35.77     541.00
 35.87     536.03
 35.97     567.63
 36.07     585.13
 36.17     570.58
 36.27     554.00
 36.37     573.54
 36.47     518.00
 36.57     529.00
 36.67     548.00
 36.77     553.00
 36.87     517.00
 36.97     558.00
 37.07     502.00
 37.17     567.00
 37.27     531.00
 37.37     541.00
 37.47     541.00
 37.57     542.00
 37.67     588.00
 37.77     524.72
 37.87     536.85
 37.97     623.09
 38.07     583.16
 38.17     619.97
 38.27     512.00
 38.37     571.00
 38.47     553.29
 38.57     585.26
 38.67     534.00
 38.77     515.00
 38.87     509.18
 38.97     523.00
 39.07     538.00
 39.17     595.66
 39.27     517.00
 39.37     578.00
 39.47     520.65
 39.57     534.29
 39.67     546.00
 39.77     508.43
 39.87     541.00
 39.97     523.00
 40.07     541.00
 40.17     498.19
 40.27     521.00
 40.37     572.79
 40.47     481.00
 40.57     573.75
 40.67     497.52
 40.77     584.00
 40.87     516.00
 40.97     546.32
 41.07     553.00
 41.17     525.08
 41.27     534.78
 41.37     572.95
 41.47     536.00
 41.57     566.62
 41.67     498.00
 41.77     557.00
 41.87     517.00
 41.97     491.00
 42.07     529.00
 42.17     590.01
 42.27     593.07
 42.37     569.00
 42.47     539.00
 42.57     638.90
 42.67     632.96
 42.77     688.45
 42.87     608.84
 42.97     626.00
 43.07     672.76
 43.17     572.00
 43.27     577.00
 43.37     561.00
 43.47     545.00
 43.57     570.00
 43.67     582.00
 43.77     553.00
 43.87     558.00
 43.97     519.00
 44.07     531.60
 44.17     557.00
 44.27     551.60
 44.37     513.31
 44.47     515.00
 44.57     492.00
 44.67     561.00
 44.77     540.27
 44.87     537.00
 44.97     549.00
 45.07     531.00
 45.17     531.00
 45.27     559.00
 45.37     523.00
 45.47     489.10
 45.57     517.00
 45.67     534.92
 45.77     559.00
 45.87     554.00
 45.97     552.24
 46.07     539.00
 46.17     511.48
 46.27     558.00
 46.37     522.00
 46.47     535.00
 46.57     536.00
 46.67     533.00
 46.77     531.00
 46.87     540.00
 46.97     582.04
 47.07     572.00
 47.17     551.18
 47.27     547.00
 47.37     551.00
 47.47     605.86
 47.57     583.00
 47.67     592.00
 47.77     634.45
 47.87     621.00
 47.97     588.29
 48.07     624.00
 48.17     660.75
 48.27     597.52
 48.37     615.00
 48.47     589.54
 48.57     541.00
 48.67     602.00
 48.77     532.21
 48.87     567.00
 48.97     586.00
 49.07     583.00
 49.17     578.00
 49.27     621.00
 49.37     602.00
 49.47     617.00
 49.57     671.00
 49.67     776.31
 49.77     815.00
 49.87     969.00
 49.97    1122.00
 50.07    1527.00
 50.17    1827.00
 50.27    2113.00
 50.37    2384.00
 50.47    2351.00
 50.57    2110.00
 50.67    1851.00
 50.77    1464.00
 50.87    1111.00
 50.97     998.29
 51.07     810.80
 51.17     734.00
 51.27     663.00
 51.37     717.22
 51.47     673.70
 51.57     653.23
 51.67     666.00
 51.77     586.75
 51.87     615.00
 51.97     638.65
 52.07     624.48
 52.17     593.00
 52.27     532.48
 52.37     565.40
 52.47     542.00
 52.57     613.00
 52.67     605.03
 52.77     598.65
 52.87     638.00
 52.97     659.00
 53.07     715.93
 53.17     705.00
 53.27     820.00
 53.37     898.99
 53.47    1039.68
 53.57    1151.24
 53.67    1223.00
 53.77    1234.00
 53.87    1194.00
 53.97    1065.00
 54.07     999.31
 54.17     906.00
 54.27     836.60
 54.37     764.00
 54.47     741.00
 54.57     640.00
 54.67     579.13
 54.77     633.00
 54.87     639.00
 54.97     548.01
 55.07     593.00
 55.17     646.00
 55.27     612.00
 55.37     610.00
 55.47     646.00
 55.57     638.68
 55.67     560.43
 55.77     672.29
 55.87     612.00
 55.97     643.00
 56.07     641.19
 56.17     770.46
 56.27     732.00
 56.37     784.00
 56.47     946.00
 56.57    1213.61
 56.67    1537.51
 56.77    1862.43
 56.87    2034.00
 56.97    2396.26
 57.07    2603.00
 57.17    2523.91
 57.27    2408.00
 57.37    2203.00
 57.47    1808.00
 57.57    1452.00
 57.67    1294.00
 57.77    1017.97
 57.87     995.28
 57.97     857.00
 58.07     839.00
 58.17     775.94
 58.27     714.39
 58.37     718.00
 58.47     818.31
 58.57     828.00
 58.67     877.00
 58.77     922.08
 58.87    1032.32
 58.97    1075.12
 59.07    1129.44
 59.17    1201.00
 59.27    1299.00
 59.37    1260.00
 59.47    1295.00
 59.57    1242.00
 59.67    1197.00
 59.77    1163.74
 59.87    1181.00
 59.97    1182.00
 60.07    1230.00
 60.17    1367.11
 60.27    1459.00
 60.37    1513.23
 60.47    1526.00
 60.57    1517.35
 60.67    1546.00
 60.77    1382.00
 60.87    1194.00
 60.97    1050.22
 61.07     901.00
 61.17     843.00
 61.27     725.06
 61.37     746.93
 61.47     764.13
 61.57     683.74
 61.67     784.09
 61.77     842.00
 61.87     867.50
 61.97    1043.59
 62.07    1083.56
 62.17    1152.00
 62.27    1266.00
 62.37    1300.00
 62.47    1300.00
 62.57    1306.00
 62.67    1178.00
 62.77    1125.00
 62.87     983.00
 62.97     936.00
 63.07     795.05
 63.17     768.77
 63.27     662.33
 63.37     688.64
 63.47     661.04
 63.57     627.00
 63.67     588.61
 63.77     625.00
 63.87     646.00
 63.97     687.00
 64.07     637.99
 64.17     716.37
 64.27     768.22
 64.37     721.00
 64.47     780.19
 64.57     863.84
 64.67     979.00
 64.77    1039.00
 64.87    1061.00
 64.97    1139.00
 65.07    1100.39
 65.17    1022.00
 65.27    1012.75
 65.37     896.91
 65.47     833.98
 65.57     759.35
 65.67     724.00
 65.77     671.00
 65.87     714.69
 65.97     653.00
 66.07     635.51
 66.17     624.74
 66.27     626.91
 66.37     605.00
 66.47     616.00
 66.57     642.41
 66.67     662.13
 66.77     626.00
 66.87     656.00
 66.97     575.42
 67.07     658.00
 67.17     669.00
 67.27     681.00
 67.37     769.73
 67.47     730.00
 67.57     913.00
 67.67    1021.00
 67.77    1280.72
 67.87    1390.52
 67.97    1624.00
 68.07    1796.64
 68.17    2109.00
 68.27    2263.00
 68.37    2309.00
 68.47    2277.00
 68.57    2200.00
 68.67    2107.00
 68.77    1888.20
 68.87    1558.00
 68.97    1450.00
 69.07    1124.00
 69.17    1002.68
 69.27     935.00
 69.37     841.45
 69.47     796.21
 69.57     746.91
 69.67     638.00
 69.77     630.00
 69.87     639.00
 69.97     659.82
 70.07     584.00
 70.17     613.00
 70.27     582.61
 70.37     667.00
 70.47     592.00
 70.57     616.00
 70.67     589.47
 70.77     564.78
 70.87     610.76
 70.97     671.00
 71.07     594.83
 71.17     693.00
 71.27     734.72
 71.37     794.00
 71.47     832.34
 71.57     907.00
 71.67     960.00
 71.77    1105.02
 71.87    1273.00
 71.97    1466.06
 72.07    1626.00
 72.17    1729.02
 72.27    1765.00
 72.37    1898.00
 72.47    1841.00
 72.57    1752.88
 72.67    1580.50
 72.77    1476.00
 72.87    1366.00
 72.97    1217.55
 73.07     995.80
 73.17     954.00
 73.27     846.00
 73.37     844.00
 73.47     695.67
 73.57     705.00
 73.67     684.00
 73.77     637.00
 73.87     648.00
 73.97     641.85
 74.07     658.00
 74.17     564.00
 74.27     624.00
 74.37     622.00
 74.47     623.00
 74.57     644.00
 74.67     622.00
 74.77     645.00
 74.87     629.00
 74.97     737.00
 75.07     599.17
 75.17     689.00
 75.27     573.15
 75.37     519.55
 75.47     639.00
 75.57     629.00
 75.67     583.00
 75.77     579.00
 75.87     649.00
 75.97     623.00
 76.07     618.00
 76.17     656.00
 76.27     683.48
 76.37     682.00
 76.47     646.00
 76.57     674.00
 76.67     731.00
 76.77     713.00
 76.87     724.00
 76.97     772.00
 77.07     714.00
 77.17     745.00
 77.27     657.00
 77.37     619.41
 77.47     648.00
 77.57     657.91
 77.67     575.00
 77.77     582.83
 77.87     541.01
 77.97     559.60
 78.07     559.00
 78.17     506.52
 78.27     573.00
 78.37     521.00
 78.47     555.00
 78.57     560.00
 78.67     595.28
 78.77     500.75
 78.87     553.00
 78.97     583.18
 79.07     572.00
 79.17     535.00
 79.27     518.00
 79.37     571.00
 79.47     526.00
 79.57     561.59
 79.67     534.11
 79.77     510.44
 79.87     535.00
 79.97     563.00
 80.07     499.39
 80.17     577.00
 80.27     608.25
 80.37     609.00
 80.47     636.03
 80.57     633.46
 80.67     612.03
 80.77     588.00
 80.87     650.00
 80.97     649.44
 81.07     653.00
 81.17     646.39
 81.27     671.12
 81.37     709.00
 81.47     763.14
 81.57     740.00
 81.67     754.00
 81.77     776.00
 81.87     801.00
 81.97     797.47
 82.07     781.45
 82.17     713.00
 82.27     779.00
 82.37     674.00
 82.47     641.34
 82.57     669.00
 82.67     656.00
 82.77     608.00
 82.87     578.29
 82.97     602.00
 83.07     602.00
 83.17     582.00
 83.27     581.66
 83.37     551.00
 83.47     579.00
 83.57     546.00
 83.67     583.00
 83.77     597.00
 83.87     585.00
 83.97     558.00
 84.07     601.00
 84.17     556.00
 84.27     580.00
 84.37     591.00
 84.47     562.00
 84.57     556.00
 84.67     546.00
 84.77     592.00
 84.87     614.08
 84.97     582.80
 85.07     570.32
 85.17     548.00
 85.27     553.00
 85.37     503.20
 85.47     611.00
 85.57     544.97
 85.67     579.27
 85.77     537.00
 85.87     526.00
 85.97     594.00
 86.07     585.00
 86.17     540.53
 86.27     510.07
 86.37     575.00
 86.47     548.01
 86.57     538.75
 86.67     576.00
 86.77     563.00
 86.87     565.00
 86.97     566.60
 87.07     610.00
 87.17     612.00
 87.27     603.58
 87.37     575.06
 87.47     632.00
 87.57     607.00
 87.67     675.00
 87.77     654.00
 87.87     647.00
 87.97     686.00
 88.07     646.00
 88.17     624.16
 88.27     615.00
 88.37     657.92
 88.47     628.00
 88.57     622.00
 88.67     558.00
 88.77     589.22
 88.87     603.00
 88.97     610.00
 89.07     602.84
 89.17     568.00
 89.27     634.00
 89.37     582.29
 89.47     629.00
 89.57     604.00
 89.67     670.36
 89.77     585.00
 89.87     546.00
 89.97     584.42
 90.07     583.00
 90.17     623.00
 90.27     619.00
 90.37     603.00
 90.47     622.00
 90.57     594.00
 90.67     547.09
 90.77     547.00
 90.87     483.00
 90.97     571.08
 91.07     543.00
 91.17     535.84
 91.27     518.15
 91.37     526.00
 91.47     508.00
 91.57     538.00
 91.67     566.00
 91.77     538.00
 91.87     581.06
 91.97     577.01
 92.07     536.00
 92.17     534.00
 92.27     522.00
 92.37     587.00
 92.47     572.00
 92.57     503.00
 92.67     544.00
 92.77     626.00
 92.87     624.00
 92.97     615.00
 93.07     633.00
 93.17     675.76
 93.27     735.00
 93.37     655.00
 93.47     709.00
 93.57     788.00
 93.67     770.00
 93.77     743.00
 93.87     836.00
 93.97     839.59
 94.07     838.00
 94.17     836.00
 94.27     793.00
 94.37     870.66
 94.47     836.00
 94.57     905.90
 94.67     840.00
 94.77     897.00
 94.87     917.00
 94.97     946.00
 95.07     953.66
 95.17     916.00
 95.27     948.17
 95.37     928.00
 95.47     966.92
 95.57     899.00
 95.67     879.00
 95.77     857.00
 95.87     873.63
 95.97     760.00
 96.07     776.00
 96.17     815.75
 96.27     719.00
 96.37     723.00
 96.47     728.00
 96.57     754.00
 96.67     775.00
 96.77     839.79
 96.87     844.00
 96.97     951.99
 97.07     907.00
 97.17    1036.00
 97.27    1066.00
 97.37    1154.00
 97.47    1169.82
 97.57    1275.00
 97.67    1397.00
 97.77    1452.00
 97.87    1476.41
 97.97    1488.00
 98.07    1494.00
 98.17    1492.00
 98.27    1376.59
 98.37    1312.00
 98.47    1422.43
 98.57    1285.19
 98.67    1292.97
 98.77    1188.00
 98.87    1072.00
 98.97    1087.00
 99.07    1029.00
 99.17     986.00
 99.27     922.00
 99.37     985.23
 99.47     922.00
 99.57     920.73
 99.67     933.00
 99.77    1019.00
 99.87    1074.74
 99.97    1014.90
100.07    1181.00
100.17    1258.97
100.27    1394.00
100.37    1362.54
100.47    1439.14
100.57    1661.12
100.67    1670.00
100.77    1857.00
100.87    1896.37
100.97    1954.00
101.07    1953.00
101.17    1981.49
101.27    2051.86
101.37    2003.00
101.47    2017.00
101.57    1857.58
101.67    1845.00
101.77    1815.00
101.87    1670.54
101.97    1725.00
102.07    1607.00
102.17    1556.00
102.27    1446.00
102.37    1482.40
102.47    1418.97
102.57    1254.38
102.67    1233.58
102.77    1177.00
102.87    1182.77
102.97    1169.67
103.07    1093.00
103.17    1173.55
103.27    1129.00
103.37    1016.82
103.47     981.57
103.57    1001.24
103.67     986.00
103.77     873.91
103.87     889.05
103.97     891.00
104.07     837.00
104.17     781.00
104.27     779.00
104.37     697.00
104.47     627.36
104.57     639.65
104.67     634.00
104.77     656.00
104.87     608.00
104.97     629.39
105.07     523.70
105.17     568.79
105.27     566.00
105.37     556.00
105.47     518.91
105.57     563.33
105.67     554.00
105.77     577.00
105.87     556.33
105.97     595.00
106.07     542.19
106.17     535.91
106.27     527.77
106.37     574.37
106.47     607.77
106.57     583.00
106.67     599.00
106.77     654.79
106.87     561.91
106.97     662.02
107.07     667.00
107.17     674.00
107.27     710.32
107.37     670.00
107.47     691.62
107.57     714.76
107.67     718.73
107.77     704.53
107.87     718.00
107.97     713.00
108.07     676.00
108.17     715.00
108.27     709.99
108.37     687.00
108.47     700.00
108.57     704.00
108.67     746.57
108.77     677.00
108.87     701.00
108.97     685.00
109.07     738.00
109.17     694.02
109.27     668.73
109.37     707.95
109.47     664.01
109.57     734.35
109.67     688.00
109.77     709.00
109.87     692.00
109.97     690.00
110.07     703.00
110.17     700.00
110.27     669.00
110.37     665.80
110.47     635.00
110.57     640.00
110.67     623.91
110.77     666.03
110.87     610.00
110.97     598.00
111.07     594.59
111.17     605.00
111.27     526.42
111.37     561.00
111.47     567.00
111.57     583.00
111.67     637.00
111.77     592.00
111.87     612.00
111.97     560.00
112.07     601.87
112.17     589.00
112.27     565.00
112.37     572.37
112.47     584.47
112.57     548.00
112.67     540.00
112.77     562.00
112.87     530.51
112.97     572.00
113.07     591.00
113.17     576.60
113.27     573.00
113.37     593.00
113.47     632.37
113.57     653.00
113.67     657.00
113.77     675.52
113.87     707.00
113.97     686.00
114.07     705.00
114.17     731.82
114.27     716.24
114.37     730.00
114.47     791.58
114.57     774.00
114.67     933.23
114.77     968.30
114.87    1054.83
114.97    1129.00
115.07    1198.00
115.17    1324.00
115.27    1556.00
115.37    1595.48
115.47    1858.00
115.57    2210.00
115.67    2379.25
115.77    2721.00
115.87    2727.61
115.97    3202.00
116.07    3493.49
116.17    3959.00
116.27    4294.04
116.37    4789.00
116.47    5096.00
116.57    5443.00
116.67    5789.00
116.77    6010.00
116.87    6367.14
116.97    6739.00
117.07    7016.99
117.17    6951.91
117.27    7085.00
117.37    7039.00
117.47    6980.00
117.57    6836.00
117.67    6813.00
117.77    6286.00
117.87    6150.00
117.97    6048.73
118.07    5321.00
118.17    5038.00
118.27    4789.00
118.37    4464.00
118.47    3975.98
118.57    3575.00
118.67    3423.18
118.77    3046.00
118.87    2715.00
118.97    2559.00
119.07    2170.24
119.17    2013.00
119.27    1761.00
119.37    1606.50
119.47    1414.00
119.57    1424.74
119.67    1316.00
119.77    1245.11
119.87    1076.00
119.97     998.00
120.07     891.35
120.17     893.00
120.27     796.00
120.37     766.00
120.47     794.00
120.57     735.00
120.67     753.00
120.77     761.59
120.87     724.66
120.97     682.00
121.07     670.00
121.17     605.00
121.27     643.00
121.37     630.60
121.47     590.57
121.57     625.00
121.67     577.52
121.77     644.00
121.87     601.40
121.97     618.00
122.07     660.00
122.17     574.00
122.27     586.00
122.37     647.00
122.47     671.82
122.57     643.33
122.67     649.00
122.77     638.00
122.87     605.00
122.97     680.00
123.07     639.00
123.17     656.66
123.27     637.20
123.37     702.09
123.47     663.00
123.57     646.00
123.67     672.00
123.77     670.00
123.87     690.00
123.97     600.90
124.07     656.00
124.17     612.00
124.27     657.00
124.37     642.18
124.47     654.00
124.57     632.00
124.67     637.00
124.77     614.00
124.87     653.00
124.97     622.00
