  9.97     590.00
 10.07     579.00
 10.17     578.78
 10.27     582.00
 10.37     570.52
 10.47     589.00
 10.57     628.00
 10.67     553.00
 10.77     571.43
 10.87     554.32
 10.97     576.00
 11.07     597.00
 11.17     535.00
 11.27     597.00
 11.37     540.55
 11.47     569.43
 11.57     608.68
 11.67     571.00
 11.77     560.84
 11.87     648.00
 11.97     589.87
 12.07     680.00
 12.17     678.95
 12.27     653.00
 12.37     665.00
 12.47     603.00
 12.57     633.17
 12.67     591.00
 12.77     584.00
 12.87     589.80
 12.97     600.06
 13.07     550.00
 13.17     544.97
 13.27     605.52
 13.37     574.53
 13.47     548.00
 13.57     575.00
 13.67     571.77
 13.77     542.00
 13.87     561.00
 13.97     577.70
 14.07     563.46
 14.17     570.00
 14.27     594.00
 14.37     571.00
 14.47     530.00
 14.57     569.41
 14.67     584.42
 14.77     594.61
 14.87     531.00
 14.97     608.00
 15.07     533.00
 15.17     527.14
 15.27     546.00
 15.37     560.77
 15.47     549.00
 15.57     551.53
 15.67     569.57
 15.77     562.53
 15.87     510.00
 15.97     536.00
 16.07     571.98
 16.17     553.28
 16.27     592.00
 16.37     592.00
 16.47     609.00
 16.57     538.00
 16.67     565.00
 16.77     578.00
 16.87     543.00
 16.97     577.98
 17.07     577.00
 17.17     539.00
 17.27     571.00
 17.37     536.31
 17.47     577.00
 17.57     557.00
 17.67     598.65
 17.77     559.00
 17.87     524.99
 17.97     586.03
 18.07     522.00
 18.17     564.80
 18.27     531.13
 18.37     605.75
 18.47     553.00
 18.57     580.65
 18.67     603.11
 18.77     553.00
 18.87     586.00
 18.97     545.00
 19.07     550.00
 19.17     572.62
 19.27     596.08
 19.37     527.00
 19.47     537.00
 19.57     497.00
 19.67     585.00
 19.77     560.00
 19.87     572.00
 19.97     521.00
 20.07     566.00
 20.17     593.48
 20.27     599.00
 20.37     523.48
 20.47     547.65
 20.57     551.00
 20.67     544.00
 20.77     521.79
 20.87     588.00
 20.97     585.29
 21.07     574.00
 21.17     575.00
 21.27     581.46
 21.37     571.76
 21.47     594.00
 21.57     525.16
 21.67     532.00
 21.77     552.64
 21.87     561.11
 21.97     554.11
 22.07     566.00
 22.17     551.18
 22.27     569.00
 22.37     572.00
 22.47     539.00
 22.57     597.00
 22.67     555.00
 22.77     542.66
 22.87     554.00
 22.97     573.00
 23.07     516.30
 23.17     522.00
 23.27     592.14
 23.37     569.00
 23.47     551.00
 23.57     548.00
 23.67     562.00
 23.77     574.00
 23.87     533.10
 23.97     562.00
 24.07     529.00
 24.17     599.18
 24.27     581.00
 24.37     596.00
 24.47     628.00
 24.57     629.00
 24.67     618.00
 24.77     601.00
 24.87     634.00
 24.97     584.00
 25.07     640.47
 25.17     564.00
 25.27     592.00
 25.37     565.00
 25.47     572.00
 25.57     543.00
 25.67     558.72
 25.77     597.00
 25.87     646.00
 25.97     507.41
 26.07     551.00
 26.17     535.00
 26.27     567.61
 26.37     539.00
 26.47     582.72
 26.57     504.00
 26.67     553.00
 26.77     544.00
 26.87     530.00
 26.97     551.00
 27.07     552.00
 27.17     527.48
 27.27     602.00
 27.37     549.00
 27.47     605.00
 27.57     551.00
 27.67     540.31
 27.77     595.00
 27.87     595.00
 27.97     622.54
 28.07     805.24
 28.17     897.00
 28.27     953.00
 28.37     890.00
 28.47     774.11
 28.57     761.71
 28.67     708.00
 28.77     745.00
 28.87     794.00
 28.97     785.72
 29.07     803.36
 29.17     700.00
 29.27     631.62
 29.37     639.78
 29.47     550.00
 29.57     577.00
 29.67     563.74
 29.77     520.62
 29.87     579.00
 29.97     581.00
 30.07     562.00
 30.17     537.00
 30.27     563.00
 30.37     547.00
 30.47     602.00
 30.57     571.00
 30.67     564.00
 30.77     558.00
 30.87     605.00
 30.97     636.00
 31.07     590.00
 31.17     597.15
 31.27     608.27
 31.37     534.87
 31.47     548.00
 31.57     544.00
 31.67     534.00
 31.77     524.00
 31.87     494.58
 31.97     510.00
 32.07     488.73
 32.17     550.00
 32.27     518.00
 32.37     519.00
 32.47     539.00
 32.57     536.00
 32.67     537.00
 32.77     542.00
 32.87     573.34
 32.97     546.00
 33.07     558.53
 33.17     591.00
 33.27     603.00
 33.37     535.00
 33.47     586.00
 33.57     601.71
 33.67     646.00
 33.77     683.00
 33.87     810.00
 33.97    1002.00
 34.07    1086.02
 34.17    1056.81
 34.27     901.00
 34.37     823.00
 34.47     653.00
 34.57     585.00
 34.67     613.05
 34.77     557.00
 34.87     564.00
 34.97     562.00
 35.07     545.00
 35.17     560.68
 35.27     524.62
 35.37     542.00
 35.47     529.00
 35.57     513.00
 35.67     516.00
 35.77     510.00
 35.87     509.00
 35.97     473.00
 36.07     490.78
 36.17     495.78
 36.27     490.10
 36.37     502.00
 36.47     510.00
 36.57     511.11
 36.67     498.00
 36.77     514.00
 36.87     509.00
 36.97     514.00
 37.07     503.42
 37.17     471.00
 37.27     506.00
 37.37     478.07
 37.47     474.00
 37.57     517.00
 37.67     503.00
 37.77     543.00
 37.87     537.91
 37.97     499.00
 38.07     537.00
 38.17     513.00
 38.27     507.94
 38.37     533.00
 38.47     497.67
 38.57     478.31
 38.67     564.00
 38.77     507.00
 38.87     481.69
 38.97     535.48
 39.07     513.29
 39.17     501.00
 39.27     531.72
 39.37     477.00
 39.47     511.11
 39.57     455.00
 39.67     532.86
 39.77     524.04
 39.87     504.00
 39.97     499.00
 40.07     492.38
 40.17     498.00
 40.27     480.00
 40.37     492.00
 40.47     514.71
 40.57     476.00
 40.67     488.00
 40.77     464.00
 40.87     490.00
 40.97     467.00
 41.07     502.00
 41.17     487.00
 41.27     470.00
 41.37     501.00
 41.47     487.60
 41.57     493.00
 41.67     490.14
 41.77     482.70
 41.87     468.64
 41.97     488.00
 42.07     509.00
 42.17     535.00
 42.27     508.00
 42.37     533.26
 42.47     533.68
 42.57     579.40
 42.67     550.00
 42.77     590.00
 42.87     641.18
 42.97     610.00
 43.07     565.82
 43.17     554.25
 43.27     524.00
 43.37     499.00
 43.47     521.00
 43.57     532.00
 43.67     509.00
 43.77     522.13
 43.87     535.92
 43.97     493.00
 44.07     494.00
 44.17     471.00
 44.27     511.99
 44.37     504.00
 44.47     495.81
 44.57     531.28
 44.67     507.00
 44.77     500.00
 44.87     495.65
 44.97     500.00
 45.07     498.00
 45.17     518.00
 45.27     535.00
 45.37     541.00
 45.47     492.24
 45.57     493.00
 45.67     486.00
 45.77     499.78
 45.87     508.00
 45.97     506.00
 46.07     439.00
 46.17     506.00
 46.27     500.00
 46.37     466.38
 46.47     492.63
 46.57     470.22
 46.67     500.37
 46.77     496.00
 46.87     465.00
 46.97     490.00
 47.07     487.30
 47.17     516.00
 47.27     525.00
 47.37     520.00
 47.47     543.00
 47.57     553.00
 47.67     553.09
 47.77     598.00
 47.87     547.00
 47.97     611.00
 48.07     628.00
 48.17     604.31
 48.27     549.00
 48.37     554.52
 48.47     572.01
 48.57     528.00
 48.67     555.00
 48.77     497.07
 48.87     527.00
 48.97     548.00
 49.07     544.00
 49.17     543.44
 49.27     578.00
 49.37     614.00
 49.47     639.68
 49.57     688.97
 49.67     853.00
 49.77    1036.00
 49.87    1343.00
 49.97    1719.00
 50.07    2050.15
 50.17    2373.00
 50.27    2372.00
 50.37    2307.93
 50.47    1893.38
 50.57    1506.78
 50.67    1180.20
 50.77     922.58
 50.87     795.90
 50.97     691.00
 51.07     624.00
 51.17     623.85
 51.27     561.98
 51.37     599.00
 51.47     631.00
 51.57     581.00
 51.67     577.00
 51.77     551.00
 51.87     564.50
 51.97     564.00
 52.07     492.08
 52.17     566.89
 52.27     552.85
 52.37     498.42
 52.47     587.00
 52.57     578.00
 52.67     563.00
 52.77     615.85
 52.87     607.00
 52.97     713.46
 53.07     829.00
 53.17     824.07
 53.27     998.61
 53.37    1095.64
 53.47    1187.00
 53.57    1162.41
 53.67    1086.00
 53.77     980.00
 53.87     903.42
 53.97     778.06
 54.07     725.00
 54.17     649.00
 54.27     595.00
 54.37     595.34
 54.47     604.36
 54.57     521.00
 54.67     511.58
 54.77     579.00
 54.87     576.00
 54.97     570.23
 55.07     536.90
 55.17     598.00
 55.27     573.00
 55.37     560.00
 55.47     582.00
 55.57     602.62
 55.67     611.00
 55.77     543.00
 55.87     576.00
 55.97     666.00
 56.07     710.43
 56.17     778.42
 56.27     850.00
 56.37    1078.00
 56.47    1316.00
 56.57    1688.00
 56.67    2022.95
 56.77    2276.00
 56.87    2483.00
 56.97    2596.00
 57.07    2488.00
 57.17    2094.00
 57.27    1815.00
 57.37    1479.54
 57.47    1211.00
 57.57    1055.00
 57.67     831.00
 57.77     759.00
 57.87     735.00
 57.97     680.00
 58.07     702.00
 58.17     719.06
 58.27     731.03
 58.37     768.65
 58.47     848.00
 58.57     921.09
 58.67    1061.34
 58.77    1134.00
 58.87    1183.00
 58.97    1316.00
 59.07    1272.73
 59.17    1324.48
 59.27    1328.00
 59.37    1312.00
 59.47    1185.00
 59.57    1220.00
 59.67    1155.00
 59.77    1150.49
 59.87    1172.00
 59.97    1314.00
 60.07    1369.00
 60.17    1487.00
 60.27    1537.26
 60.37    1556.42
 60.47    1424.00
 60.57    1262.29
 60.67    1181.99
 60.77     971.79
 60.87     813.00
 60.97     726.00
 61.07     639.00
 61.17     630.00
 61.27     721.00
 61.37     692.96
 61.47     656.00
 61.57     739.00
 61.67     810.00
 61.77     948.69
 61.87    1074.00
 61.97    1262.56
 62.07    1344.00
 62.17    1375.00
 62.27    1274.00
 62.37    1411.68
 62.47    1163.00
 62.57    1035.00
 62.67     962.00
 62.77     799.00
 62.87     759.28
 62.97     646.00
 63.07     613.00
 63.17     603.00
 63.27     605.40
 63.37     618.00
 63.47     591.00
 63.57     588.00
 63.67     563.00
 63.77     578.00
 63.87     640.68
 63.97     699.00
 64.07     697.41
 64.17     730.00
 64.27     823.00
 64.37     870.00
 64.47     902.95
 64.57     996.39
 64.67    1053.00
 64.77    1020.00
 64.87     949.00
 64.97     900.20
 65.07     838.00
 65.17     827.00
 65.27     732.00
 65.37     689.00
 65.47     665.07
 65.57     612.00
 65.67     630.25
 65.77     601.00
 65.87     545.67
 65.97     551.92
 66.07     526.00
 66.17     538.00
 66.27     518.00
 66.37     534.00
 66.47     535.84
 66.57     580.00
 66.67     563.21
 66.77     559.27
 66.87     586.00
 66.97     566.63
 67.07     634.60
 67.17     723.30
 67.27     808.39
 67.37     872.00
 67.47     958.00
 67.57    1180.11
 67.67    1388.00
 67.77    1706.00
 67.87    1977.00
 67.97    2196.00
 68.07    2384.00
 68.17    2474.00
 68.27    2333.00
 68.37    2169.00
 68.47    2003.00
 68.57    1692.94
 68.67    1377.00
 68.77    1153.00
 68.87     944.00
 68.97     811.00
 69.07     698.54
 69.17     677.41
 69.27     675.00
 69.37     607.58
 69.47     608.00
 69.57     603.00
 69.67     580.00
 69.77     553.00
 69.87     587.37
 69.97     571.00
 70.07     588.97
 70.17     598.56
 70.27     575.00
 70.37     610.00
 70.47     552.00
 70.57     609.71
 70.67     539.00
 70.77     646.00
 70.87     596.55
 70.97     652.00
 71.07     679.00
 71.17     685.00
 71.27     854.00
 71.37     901.00
 71.47    1025.00
 71.57    1163.00
 71.67    1402.00
 71.77    1623.93
 71.87    1657.97
 71.97    1826.00
 72.07    1891.00
 72.17    1854.25
 72.27    1742.59
 72.37    1691.00
 72.47    1488.00
 72.57    1363.00
 72.67    1184.00
 72.77    1026.00
 72.87     909.01
 72.97     825.00
 73.07     802.09
 73.17     708.63
 73.27     674.60
 73.37     613.00
 73.47     680.65
 73.57     604.84
 73.67     664.00
 73.77     583.86
 73.87     599.74
 73.97     604.00
 74.07     611.32
 74.17     616.00
 74.27     597.00
 74.37     586.00
 74.47     589.00
 74.57     549.83
 74.67     576.66
 74.77     613.00
 74.87     613.00
 74.97     536.03
 75.07     581.00
 75.17     581.00
 75.27     591.00
 75.37     580.00
 75.47     571.00
 75.57     582.00
 75.67     565.57
 75.77     600.00
 75.87     611.00
 75.97     568.00
 76.07     611.00
 76.17     624.00
 76.27     614.79
 76.37     699.00
 76.47     668.52
 76.57     736.00
 76.67     700.00
 76.77     674.00
 76.87     692.00
 76.97     648.00
 77.07     668.88
 77.17     647.54
 77.27     619.00
 77.37     569.00
 77.47     529.00
 77.57     527.00
 77.67     490.00
 77.77     507.00
 77.87     536.00
 77.97     502.00
 78.07     516.95
 78.17     493.00
 78.27     501.00
 78.37     538.21
 78.47     535.49
 78.57     488.80
 78.67     496.53
 78.77     477.00
 78.87     507.00
 78.97     555.45
 79.07     507.00
 79.17     480.88
 79.27     497.00
 79.37     490.00
 79.47     558.15
 79.57     497.00
 79.67     525.07
 79.77     542.00
 79.87     512.00
 79.97     521.05
 80.07     527.00
 80.17     575.00
 80.27     588.04
 80.37     552.00
 80.47     600.00
 80.57     637.71
 80.67     637.00
 80.77     633.95
 80.87     648.00
 80.97     721.00
 81.07     694.00
 81.17     665.00
 81.27     718.00
 81.37     752.57
 81.47     749.05
 81.57     771.00
 81.67     707.00
 81.77     768.18
 81.87     696.59
 81.97     743.00
 82.07     681.00
 82.17     627.00
 82.27     647.00
 82.37     592.47
 82.47     581.46
 82.57     613.00
 82.67     555.00
 82.77     555.00
 82.87     598.50
 82.97     540.00
 83.07     580.40
 83.17     556.00
 83.27     507.53
 83.37     531.88
 83.47     576.12
 83.57     563.00
 83.67     531.63
 83.77     510.00
 83.87     560.00
 83.97     551.00
 84.07     569.20
 84.17     594.78
 84.27     543.00
 84.37     559.00
 84.47     517.64
 84.57     557.00
 84.67     547.00
 84.77     511.00
 84.87     538.00
 84.97     555.96
 85.07     531.00
 85.17     489.00
 85.27     520.70
 85.37     489.58
 85.47     476.85
 85.57     543.32
 85.67     486.00
 85.77     510.00
 85.87     539.00
 85.97     511.00
 86.07     528.00
 86.17     537.00
 86.27     540.00
 86.37     536.00
 86.47     563.00
 86.57     556.00
 86.67     566.00
 86.77     522.00
 86.87     543.00
 86.97     561.47
 87.07     593.26
 87.17     572.00
 87.27     669.00
 87.37     618.00
 87.47     628.00
 87.57     615.00
 87.67     647.00
 87.77     622.51
 87.87     658.00
 87.97     582.62
 88.07     616.00
 88.17     563.96
 88.27     621.00
 88.37     602.95
 88.47     520.78
 88.57     557.00
 88.67     602.00
 88.77     561.00
 88.87     643.00
 88.97     573.00
 89.07     568.02
 89.17     585.00
 89.27     605.95
 89.37     627.00
 89.47     603.04
 89.57     592.00
 89.67     548.00
 89.77     617.04
 89.87     560.00
 89.97     578.00
 90.07     559.00
 90.17     549.58
 90.27     576.84
 90.37     502.02
 90.47     533.00
 90.57     535.00
 90.67     508.00
 90.77     485.00
 90.87     552.00
 90.97     559.99
 91.07     529.98
 91.17     500.00
 91.27     481.68
 91.37     527.31
 91.47     551.00
 91.57     505.27
 91.67     520.00
 91.77     509.00
 91.87     509.61
 91.97     561.25
 92.07     561.00
 92.17     524.00
 92.27     633.00
 92.37     617.60
 92.47     622.42
 92.57     607.00
 92.67     694.00
 92.77     684.68
 92.87     674.00
 92.97     658.35
 93.07     723.00
 93.17     710.00
 93.27     754.00
 93.37     731.53
 93.47     724.92
 93.57     741.42
 93.67     762.00
 93.77     806.96
 93.87     768.00
 93.97     806.00
 94.07     878.00
 94.17     872.00
 94.27     853.50
 94.37     882.52
 94.47     869.78
 94.57     915.00
 94.67     906.00
 94.77     925.47
 94.87     934.00
 94.97     906.29
 95.07     895.00
 95.17     871.51
 95.27     860.00
 95.37     788.00
 95.47     781.00
 95.57     760.61
 95.67     792.00
 95.77     755.00
 95.87     723.28
 95.97     719.00
 96.07     666.00
 96.17     720.17
 96.27     754.00
 96.37     788.34
 96.47     818.00
 96.57     788.23
 96.67     948.20
 96.77     964.00
 96.87    1045.00
 96.97    1063.00
 97.07    1151.30
 97.17    1309.28
 97.27    1273.81
 97.37    1337.27
 97.47    1413.90
 97.57    1496.00
 97.67    1383.70
 97.77    1408.00
 97.87    1328.93
 97.97    1285.80
 98.07    1332.76
 98.17    1257.39
 98.27    1156.00
 98.37    1116.00
 98.47    1000.00
 98.57     932.54
 98.67     920.00
 98.77     851.00
 98.87     867.77
 98.97     817.00
 99.07     828.00
 99.17     807.00
 99.27     924.93
 99.37     966.34
 99.47     964.00
 99.57    1050.11
 99.67    1115.00
 99.77    1239.00
 99.87    1333.00
 99.97    1519.00
100.07    1610.00
100.17    1629.00
100.27    1748.00
100.37    1853.00
100.47    1814.00
100.57    1908.00
100.67    2007.88
100.77    1940.92
100.87    2035.00
100.97    1955.33
101.07    1953.65
101.17    1813.59
101.27    1836.44
101.37    1722.00
101.47    1634.00
101.57    1572.00
101.67    1471.62
101.77    1406.00
101.87    1329.20
101.97    1265.15
102.07    1220.00
102.17    1184.00
102.27    1164.00
102.37    1187.20
102.47    1088.00
102.57    1095.61
102.67    1111.00
102.77    1012.41
102.87    1060.07
102.97    1026.00
103.07    1014.40
103.17     896.00
103.27     910.19
103.37     846.00
103.47     778.30
103.57     781.58
103.67     723.00
103.77     652.00
103.87     697.76
103.97     663.00
104.07     623.97
104.17     587.23
104.27     544.13
104.37     598.00
104.47     577.00
104.57     508.83
104.67     568.47
104.77     563.00
104.87     585.00
104.97     574.00
105.07     502.60
105.17     524.07
105.27     490.00
105.37     588.00
105.47     576.00
105.57     562.00
105.67     548.00
105.77     528.00
105.87     537.60
105.97     574.00
106.07     554.91
106.17     602.14
106.27     584.00
106.37     606.00
106.47     632.00
106.57     639.68
106.67     605.00
106.77     612.00
106.87     666.09
106.97     644.00
107.07     700.88
107.17     649.00
107.27     662.00
107.37     665.00
107.47     748.00
107.57     635.00
107.67     708.61
107.77     740.28
107.87     669.71
107.97     674.00
108.07     664.72
108.17     645.00
108.27     661.00
108.37     653.00
108.47     663.00
108.57     658.00
108.67     670.00
108.77     665.91
108.87     715.00
108.97     680.00
109.07     734.00
109.17     689.00
109.27     696.25
109.37     612.00
109.47     652.00
109.57     606.41
109.67     601.00
109.77     653.00
109.87     643.00
109.97     621.37
110.07     622.00
110.17     602.34
110.27     597.00
110.37     587.61
110.47     536.58
110.57     573.35
110.67     583.00
110.77     538.00
110.87     593.00
110.97     496.64
111.07     567.04
111.17     534.00
111.27     505.43
111.37     501.80
111.47     513.00
111.57     520.41
111.67     551.00
111.77     530.00
111.87     572.65
111.97     544.46
112.07     546.00
112.17     595.00
112.27     545.00
112.37     571.00
112.47     575.00
112.57     580.00
112.67     627.00
112.77     628.68
112.87     576.59
112.97     583.00
113.07     575.00
113.17     636.09
113.27     681.95
113.37     626.00
113.47     658.00
113.57     713.00
113.67     671.00
113.77     742.03
113.87     767.81
113.97     714.00
114.07     852.17
114.17     852.00
114.27     925.00
114.37    1022.00
114.47    1113.00
114.57    1143.00
114.67    1353.82
114.77    1456.00
114.87    1704.00
114.97    1850.11
115.07    2103.00
115.17    2352.00
115.27    2638.00
115.37    2860.00
115.47    3218.84
115.57    3491.00
115.67    3806.00
115.77    4149.01
115.87    4499.72
115.97    4881.00
116.07    5262.39
116.17    5568.00
116.27    5924.00
116.37    6336.00
116.47    6577.00
116.57    6686.80
116.67    6651.66
116.77    6920.00
116.87    6825.06
116.97    6731.00
117.07    6603.56
117.17    6236.00
117.27    6097.56
117.37    5751.90
117.47    5252.00
117.57    5054.08
117.67    4689.00
117.77    4288.00
117.87    3896.30
117.97    3472.71
118.07    3156.00
118.17    2921.00
118.27    2724.00
118.37    2261.00
118.47    1975.00
118.57    1813.00
118.67    1640.00
118.77    1546.30
118.87    1339.82
118.97    1182.00
119.07    1114.00
119.17    1021.00
119.27     899.00
119.37     835.91
119.47     833.28
119.57     821.00
119.67     744.00
119.77     699.00
119.87     735.00
119.97     652.00
120.07     655.59
120.17     601.49
120.27     580.00
120.37     595.00
120.47     566.00
120.57     550.00
120.67     604.00
120.77     585.00
120.87     554.00
120.97     548.00
121.07     577.00
121.17     583.00
121.27     583.56
121.37     580.88
121.47     602.80
121.57     560.00
121.67     616.68
121.77     585.34
121.87     612.99
121.97     619.00
122.07     600.00
122.17     602.32
122.27     619.00
122.37     650.60
122.47     631.00
122.57     598.00
122.67     606.00
122.77     635.70
122.87     667.00
122.97     648.00
123.07     663.00
123.17     635.00
123.27     595.87
123.37     664.05
123.47     622.20
123.57     679.00
123.67     662.00
123.77     640.00
123.87     609.00
123.97     631.00
124.07     615.68
124.17     590.55
124.27     621.00
124.37     574.02
124.47     638.00
124.57     607.00
124.67     639.00
124.77     615.36
124.87     617.06
124.97     585.86
