  9.97     581.00
 10.07     619.00
 10.17     547.00
 10.27     608.00
 10.37     594.28
 10.47     577.00
 10.57     557.29
 10.67     570.00
 10.77     550.82
 10.87     592.91
 10.97     595.00
 11.07     608.00
 11.17     576.00
 11.27     578.00
 11.37     599.00
 11.47     610.00
 11.57     619.00
 11.67     633.00
 11.77     592.00
 11.87     647.89
 11.97     641.87
 12.07     653.71
 12.17     680.00
 12.27     669.98
 12.37     639.00
 12.47     634.00
 12.57     602.00
 12.67     557.00
 12.77     593.00
 12.87     559.00
 12.97     544.64
 13.07     543.50
 13.17     550.00
 13.27     517.00
 13.37     566.00
 13.47     561.00
 13.57     559.00
 13.67     569.00
 13.77     603.37
 13.87     546.00
 13.97     613.00
 14.07     551.00
 14.17     588.00
 14.27     593.24
 14.37     547.00
 14.47     590.06
 14.57     609.54
 14.67     609.00
 14.77     589.03
 14.87     524.63
 14.97     595.15
 15.07     580.95
 15.17     505.00
 15.27     606.79
 15.37     595.00
 15.47     576.00
 15.57     572.00
 15.67     544.00
 15.77     550.00
 15.87     603.00
 15.97     583.00
 16.07     543.37
 16.17     553.00
 16.27     613.42
 16.37     555.00
 16.47     572.00
 16.57     529.74
 16.67     558.00
 16.77     561.52
 16.87     584.73
 16.97     554.00
 17.07     538.85
 17.17     588.00
 17.27     582.00
 17.37     556.00
 17.47     573.00
 17.57     582.00
 17.67     607.31
 17.77     554.00
 17.87     610.19
 17.97     535.84
 18.07     537.36
 18.17     541.00
 18.27     556.05
 18.37     600.24
 18.47     548.00
 18.57     604.25
 18.67     585.00
 18.77     538.00
 18.87     579.00
 18.97     554.00
 19.07     497.00
 19.17     561.00
 19.27     550.00
 19.37     525.00
 19.47     584.31
 19.57     558.00
 19.67     577.00
 19.77     526.71
 19.87     555.21
 19.97     570.00
 20.07     547.00
 20.17     535.00
 20.27     563.00
 20.37     591.00
 20.47     598.00
 20.57     542.00
 20.67     554.24
 20.77     528.65
 20.87     595.00
 20.97     541.61
 21.07     551.00
 21.17     549.00
 21.27     555.00
 21.37     617.00
 21.47     577.00
 21.57     570.00
 21.67     555.00
 21.77     599.00
 21.87     518.24
 21.97     581.50
 22.07     520.00
 22.17     569.00
 22.27     540.62
 22.37     550.00
 22.47     533.00
 22.57     555.00
 22.67     544.00
 22.77     572.00
 22.87     550.00
 22.97     545.00
 23.07     573.65
 23.17     610.00
 23.27     533.00
 23.37     563.55
 23.47     575.03
 23.57     552.00
 23.67     530.00
 23.77     546.00
 23.87     511.98
 23.97     487.00
 24.07     525.79
 24.17     588.00
 24.27     566.00
 24.37     593.00
 24.47     587.00
 24.57     562.00
 24.67     627.84
 24.77     638.00
 24.87     604.00
 24.97     650.74
 25.07     594.00
 25.17     511.00
 25.27     549.00
 25.37     535.12
 25.47     560.00
 25.57     509.00
 25.67     579.79
 25.77     594.00
 25.87     547.00
 25.97     571.00
 26.07     566.00
 26.17     588.89
 26.27     564.00
 26.37     504.94
 26.47     582.00
 26.57     554.93
 26.67     577.58
 26.77     536.00
 26.87     535.98
 26.97     562.00
 27.07     580.00
 27.17     560.00
 27.27     537.00
 27.37     567.00
 27.47     565.00
 27.57     525.00
 27.67     536.00
 27.77     543.77
 27.87     601.00
 27.97     679.00
 28.07     772.00
 28.17     838.28
 28.27     912.85
 28.37     826.00
 28.47     779.00
 28.57     742.90
 28.67     709.00
 28.77     715.67
 28.87     757.00
 28.97     877.13
 29.07     776.00
 29.17     744.27
 29.27     650.00
 29.37     596.00
 29.47     551.00
 29.57     573.00
 29.67     605.54
 29.77     530.84
 29.87     520.00
 29.97     583.00
 30.07     587.00
 30.17     576.00
 30.27     515.24
 30.37     585.00
 30.47     532.94
 30.57     535.69
 30.67     567.00
 30.77     588.01
 30.87     612.00
 30.97     649.00
 31.07     589.00
 31.17     624.49
 31.27     566.00
 31.37     551.00
 31.47     527.00
 31.57     517.00
 31.67     529.00
 31.77     574.00
 31.87     543.00
 31.97     544.00
 32.07     512.00
 32.17     527.00
 32.27     587.00
 32.37     555.00
 32.47     565.01
 32.57     504.91
 32.67     535.00
 32.77     574.00
 32.87     536.00
 32.97     524.00
 33.07     564.20
 33.17     576.00
 33.27     518.00
 33.37     551.72
 33.47     531.26
 33.57     570.00
 33.67     633.00
 33.77     688.57
 33.87     875.00
 33.97     992.84
 34.07    1021.06
 34.17     974.00
 34.27     842.00
 34.37     708.00
 34.47     626.88
 34.57     595.00
 34.67     532.68
 34.77     547.00
 34.87     565.00
 34.97     513.00
 35.07     524.00
 35.17     509.04
 35.27     515.00
 35.37     523.00
 35.47     512.00
 35.57     542.01
 35.67     539.00
 35.77     516.00
 35.87     477.52
 35.97     514.00
 36.07     536.72
 36.17     526.00
 36.27     508.29
 36.37     514.00
 36.47     535.86
 36.57     497.89
 36.67     503.00
 36.77     490.00
 36.87     505.00
 36.97     526.89
 37.07     566.00
 37.17     539.00
 37.27     563.74
 37.37     520.00
 37.47     476.76
 37.57     487.00
 37.67     514.95
 37.77     527.00
 37.87     536.00
 37.97     537.37
 38.07     578.00
 38.17     514.00
 38.27     549.00
 38.37     549.69
 38.47     518.00
 38.57     525.00
 38.67     515.00
 38.77     473.00
 38.87     476.10
 38.97     535.00
 39.07     492.00
 39.17     549.00
 39.27     499.00
 39.37     467.71
 39.47     504.00
 39.57     532.93
 39.67     532.87
 39.77     537.03
 39.87     488.00
 39.97     517.00
 40.07     506.00
 40.17     531.00
 40.27     522.57
 40.37     497.00
 40.47     531.00
 40.57     547.96
 40.67     523.13
 40.77     533.00
 40.87     492.00
 40.97     473.00
 41.07     539.70
 41.17     471.95
 41.27     475.00
 41.37     509.00
 41.47     472.72
 41.57     469.00
 41.67     469.00
 41.77     500.00
 41.87     541.12
 41.97     543.91
 42.07     470.15
 42.17     533.00
 42.27     534.00
 42.37     591.14
 42.47     547.00
 42.57     569.43
 42.67     557.00
 42.77     630.26
 42.87     579.00
 42.97     586.07
 43.07     555.00
 43.17     548.00
 43.27     561.00
 43.37     534.12
 43.47     533.14
 43.57     487.00
 43.67     519.00
 43.77     481.00
 43.87     473.00
 43.97     478.00
 44.07     523.81
 44.17     530.04
 44.27     511.00
 44.37     466.00
 44.47     511.00
 44.57     522.00
 44.67     470.00
 44.77     525.60
 44.87     473.00
 44.97     521.00
 45.07     490.00
 45.17     503.00
 45.27     465.80
 45.37     469.05
 45.47     500.00
 45.57     529.77
 45.67     537.00
 45.77     499.00
 45.87     474.50
 45.97     547.63
 46.07     491.00
 46.17     559.00
 46.27     480.53
 46.37     519.00
 46.47     485.00
 46.57     510.00
 46.67     545.00
 46.77     500.00
 46.87     491.00
 46.97     481.00
 47.07     498.18
 47.17     525.00
 47.27     584.00
 47.37     524.00
 47.47     523.00
 47.57     537.00
 47.67     626.00
 47.77     584.28
 47.87     553.97
 47.97     609.14
 48.07     608.77
 48.17     548.32
 48.27     544.00
 48.37     499.10
 48.47     563.00
 48.57     489.95
 48.67     491.20
 48.77     501.00
 48.87     535.00
 48.97     580.52
 49.07     527.22
 49.17     633.57
 49.27     572.00
 49.37     617.00
 49.47     641.09
 49.57     810.00
 49.67     978.00
 49.77    1145.09
 49.87    1417.00
 49.97    1880.90
 50.07    2238.74
 50.17    2436.32
 50.27    2552.94
 50.37    2221.40
 50.47    1831.00
 50.57    1403.00
 50.67    1162.76
 50.77     956.97
 50.87     786.42
 50.97     708.00
 51.07     638.33
 51.17     641.54
 51.27     618.00
 51.37     575.00
 51.47     579.00
 51.57     560.00
 51.67     577.03
 51.77     555.00
 51.87     573.00
 51.97     525.00
 52.07     547.02
 52.17     493.00
 52.27     581.25
 52.37     578.00
 52.47     497.93
 52.57     543.00
 52.67     535.00
 52.77     597.39
 52.87     691.00
 52.97     704.00
 53.07     793.00
 53.17     887.05
 53.27    1055.63
 53.37    1084.29
 53.47    1171.00
 53.57    1178.23
 53.67    1124.62
 53.77    1042.00
 53.87     844.00
 53.97     810.51
 54.07     720.82
 54.17     583.00
 54.27     611.50
 54.37     607.00
 54.47     558.00
 54.57     572.00
 54.67     557.00
 54.77     555.00
 54.87     585.00
 54.97     588.38
 55.07     507.90
 55.17     584.00
 55.27     541.65
 55.37     571.66
 55.47     567.00
 55.57     573.00
 55.67     594.00
 55.77     582.10
 55.87     583.32
 55.97     649.27
 56.07     711.00
 56.17     745.00
 56.27     886.00
 56.37    1092.00
 56.47    1410.46
 56.57    1767.96
 56.67    2122.00
 56.77    2521.40
 56.87    2730.25
 56.97    2550.66
 57.07    2361.00
 57.17    2155.00
 57.27    1624.00
 57.37    1260.00
 57.47    1051.00
 57.57     843.00
 57.67     808.49
 57.77     676.00
 57.87     668.86
 57.97     655.83
 58.07     705.62
 58.17     694.00
 58.27     767.90
 58.37     858.39
 58.47     915.17
 58.57    1073.92
 58.67    1215.00
 58.77    1247.00
 58.87    1441.00
 58.97    1469.20
 59.07    1539.78
 59.17    1482.00
 59.27    1416.96
 59.37    1368.00
 59.47    1233.00
 59.57    1199.00
 59.67    1140.00
 59.77    1209.00
 59.87    1254.00
 59.97    1251.00
 60.07    1436.33
 60.17    1475.52
 60.27    1608.00
 60.37    1516.00
 60.47    1502.00
 60.57    1263.57
 60.67    1095.00
 60.77     931.00
 60.87     739.66
 60.97     714.56
 61.07     715.00
 61.17     670.00
 61.27     623.00
 61.37     607.00
 61.47     739.74
 61.57     771.00
 61.67     875.00
 61.77     967.00
 61.87    1161.20
 61.97    1243.23
 62.07    1347.00
 62.17    1357.00
 62.27    1482.66
 62.37    1376.39
 62.47    1155.00
 62.57    1084.40
 62.67     945.00
 62.77     861.62
 62.87     701.00
 62.97     674.00
 63.07     606.00
 63.17     601.00
 63.27     550.43
 63.37     613.40
 63.47     576.20
 63.57     564.00
 63.67     578.00
 63.77     607.00
 63.87     562.00
 63.97     679.06
 64.07     697.45
 64.17     798.00
 64.27     827.00
 64.37     903.00
 64.47    1001.00
 64.57     981.00
 64.67    1026.00
 64.77    1032.00
 64.87     964.00
 64.97     915.00
 65.07     809.00
 65.17     793.14
 65.27     716.00
 65.37     692.55
 65.47     710.00
 65.57     610.24
 65.67     648.00
 65.77     567.00
 65.87     548.90
 65.97     560.32
 66.07     604.44
 66.17     568.18
 66.27     634.00
 66.37     523.31
 66.47     595.00
 66.57     601.93
 66.67     578.00
 66.77     571.00
 66.87     616.63
 66.97     628.84
 67.07     686.51
 67.17     666.00
 67.27     828.15
 67.37     889.40
 67.47    1089.40
 67.57    1288.00
 67.67    1566.00
 67.77    1760.00
 67.87    2024.00
 67.97    2195.12
 68.07    2426.00
 68.17    2384.00
 68.27    2298.00
 68.37    2106.22
 68.47    1865.00
 68.57    1528.00
 68.67    1332.82
 68.77    1052.00
 68.87     889.00
 68.97     804.00
 69.07     702.00
 69.17     666.00
 69.27     658.85
 69.37     559.00
 69.47     605.28
 69.57     596.00
 69.67     598.00
 69.77     528.00
 69.87     595.00
 69.97     601.00
 70.07     597.00
 70.17     594.00
 70.27     580.00
 70.37     520.51
 70.47     581.00
 70.57     574.00
 70.67     602.00
 70.77     622.62
 70.87     585.77
 70.97     624.07
 71.07     627.00
 71.17     760.00
 71.27     855.00
 71.37     955.00
 71.47    1131.58
 71.57    1297.01
 71.67    1487.71
 71.77    1657.00
 71.87    1788.00
 71.97    1939.00
 72.07    1972.78
 72.17    1899.00
 72.27    1784.19
 72.37    1685.00
 72.47    1465.00
 72.57    1307.00
 72.67    1172.92
 72.77    1025.00
 72.87     837.00
 72.97     877.80
 73.07     729.00
 73.17     728.00
 73.27     686.00
 73.37     738.14
 73.47     633.64
 73.57     616.88
 73.67     572.00
 73.77     566.00
 73.87     586.04
 73.97     552.00
 74.07     555.02
 74.17     605.00
 74.27     591.00
 74.37     595.00
 74.47     640.00
 74.57     618.00
 74.67     632.00
 74.77     645.00
 74.87     592.00
 74.97     625.00
 75.07     520.66
 75.17     562.68
 75.27     540.00
 75.37     503.68
 75.47     560.00
 75.57     593.00
 75.67     588.00
 75.77     595.70
 75.87     572.00
 75.97     613.00
 76.07     588.13
 76.17     655.80
 76.27     654.83
 76.37     669.00
 76.47     663.00
 76.57     698.00
 76.67     675.47
 76.77     702.00
 76.87     627.00
 76.97     646.00
 77.07     618.00
 77.17     599.98
 77.27     616.09
 77.37     565.07
 77.47     565.00
 77.57     543.00
 77.67     588.23
 77.77     494.00
 77.87     503.00
 77.97     549.73
 78.07     531.68
 78.17     513.00
 78.27     551.00
 78.37     494.00
 78.47     536.00
 78.57     508.00
 78.67     534.63
 78.77     485.51
 78.87     492.00
 78.97     543.96
 79.07     535.00
 79.17     528.00
 79.27     494.00
 79.37     513.00
 79.47     488.00
 79.57     485.00
 79.67     526.00
 79.77     546.00
 79.87     518.53
 79.97     569.00
 80.07     548.00
 80.17     567.00
 80.27     597.00
 80.37     559.00
 80.47     569.00
 80.57     606.00
 80.67     643.92
 80.77     635.00
 80.87     662.00
 80.97     686.05
 81.07     672.05
 81.17     707.64
 81.27     736.00
 81.37     774.00
 81.47     776.00
 81.57     740.57
 81.67     739.00
 81.77     684.88
 81.87     745.00
 81.97     686.52
 82.07     684.17
 82.17     657.00
 82.27     646.00
 82.37     631.95
 82.47     602.00
 82.57     639.00
 82.67     547.00
 82.77     589.00
 82.87     575.00
 82.97     526.78
 83.07     593.00
 83.17     539.00
 83.27     548.00
 83.37     553.00
 83.47     549.00
 83.57     521.00
 83.67     581.00
 83.77     553.49
 83.87     597.55
 83.97     598.79
 84.07     576.91
 84.17     541.36
 84.27     619.01
 84.37     531.00
 84.47     581.00
 84.57     542.99
 84.67     566.00
 84.77     555.00
 84.87     556.24
 84.97     529.00
 85.07     549.00
 85.17     567.20
 85.27     516.00
 85.37     509.00
 85.47     529.78
 85.57     515.00
 85.67     560.00
 85.77     543.00
 85.87     559.00
 85.97     558.92
 86.07     508.19
 86.17     534.00
 86.27     535.53
 86.37     559.00
 86.47     514.24
 86.57     518.30
 86.67     581.61
 86.77     582.00
 86.87     632.92
 86.97     570.00
 87.07     561.00
 87.17     665.00
 87.27     652.00
 87.37     669.63
 87.47     635.00
 87.57     615.00
 87.67     653.00
 87.77     671.00
 87.87     631.00
 87.97     618.11
 88.07     672.00
 88.17     597.00
 88.27     542.18
 88.37     591.61
 88.47     562.00
 88.57     551.53
 88.67     587.00
 88.77     591.00
 88.87     565.76
 88.97     611.96
 89.07     608.00
 89.17     569.00
 89.27     581.00
 89.37     556.00
 89.47     603.00
 89.57     634.79
 89.67     555.00
 89.77     568.00
 89.87     594.09
 89.97     574.00
 90.07     509.00
 90.17     544.00
 90.27     601.60
 90.37     537.00
 90.47     545.00
 90.57     525.00
 90.67     528.00
 90.77     511.94
 90.87     485.15
 90.97     529.09
 91.07     514.00
 91.17     512.00
 91.27     569.53
 91.37     493.00
 91.47     540.82
 91.57     561.61
 91.67     537.26
 91.77     549.00
 91.87     527.00
 91.97     504.00
 92.07     547.00
 92.17     548.00
 92.27     587.00
 92.37     615.00
 92.47     655.00
 92.57     639.00
 92.67     647.00
 92.77     695.00
 92.87     738.00
 92.97     697.00
 93.07     772.00
 93.17     765.00
 93.27     754.00
 93.37     732.51
 93.47     813.00
 93.57     824.99
 93.67     767.53
 93.77     792.93
 93.87     864.00
 93.97     866.00
 94.07     883.00
 94.17     874.00
 94.27     796.82
 94.37     876.00
 94.47     839.27
 94.57     925.00
 94.67     920.00
 94.77     926.00
 94.87     906.40
 94.97     950.00
 95.07     912.00
 95.17     858.00
 95.27     781.23
 95.37     781.00
 95.47     805.55
 95.57     786.00
 95.67     733.31
 95.77     698.00
 95.87     672.00
 95.97     662.00
 96.07     740.38
 96.17     693.38
 96.27     738.64
 96.37     754.44
 96.47     819.77
 96.57     828.00
 96.67     892.00
 96.77     904.00
 96.87    1082.00
 96.97    1203.19
 97.07    1200.00
 97.17    1339.00
 97.27    1433.94
 97.37    1430.47
 97.47    1447.34
 97.57    1427.00
 97.67    1524.00
 97.77    1390.00
 97.87    1376.00
 97.97    1319.00
 98.07    1218.00
 98.17    1153.00
 98.27    1085.00
 98.37     997.04
 98.47     955.00
 98.57     802.00
 98.67     809.04
 98.77     787.00
 98.87     836.29
 98.97     817.92
 99.07     880.00
 99.17     859.00
 99.27     945.00
 99.37    1018.00
 99.47    1022.00
 99.57    1135.00
 99.67    1190.45
 99.77    1289.00
 99.87    1366.00
 99.97    1522.00
100.07    1589.33
100.17    1751.00
100.27    1871.50
100.37    1996.00
100.47    2013.00
100.57    2054.00
100.67    2116.65
100.77    2070.40
100.87    2021.00
100.97    2042.00
101.07    1917.00
101.17    1917.00
101.27    1761.00
101.37    1723.38
101.47    1532.00
101.57    1538.76
101.67    1478.00
101.77    1345.00
101.87    1258.00
101.97    1302.72
102.07    1177.00
102.17    1185.92
102.27    1129.00
102.37    1110.00
102.47    1085.64
102.57    1126.00
102.67    1069.00
102.77     980.16
102.87     954.00
102.97     993.00
103.07     877.83
103.17     929.00
103.27     866.47
103.37     805.00
103.47     820.10
103.57     716.29
103.67     683.00
103.77     663.61
103.87     644.00
103.97     627.00
104.07     566.14
104.17     620.00
104.27     613.00
104.37     575.94
104.47     533.66
104.57     576.15
104.67     549.00
104.77     507.00
104.87     590.00
104.97     534.24
105.07     530.00
105.17     577.00
105.27     599.00
105.37     548.67
105.47     512.00
105.57     544.00
105.67     536.00
105.77     524.16
105.87     574.00
105.97     555.00
106.07     578.00
106.17     568.91
106.27     607.00
106.37     583.00
106.47     617.24
106.57     590.87
106.67     636.00
106.77     633.00
106.87     643.00
106.97     626.01
107.07     657.00
107.17     667.00
107.27     713.23
107.37     678.00
107.47     697.00
107.57     723.99
107.67     741.00
107.77     680.62
107.87     701.14
107.97     688.00
108.07     692.25
108.17     732.00
108.27     648.00
108.37     660.87
108.47     728.00
108.57     697.54
108.67     708.00
108.77     666.00
108.87     717.88
108.97     656.49
109.07     694.00
109.17     708.00
109.27     666.82
109.37     620.57
109.47     674.86
109.57     610.00
109.67     568.32
109.77     594.49
109.87     589.00
109.97     545.20
110.07     576.00
110.17     543.00
110.27     564.35
110.37     589.00
110.47     535.00
110.57     588.00
110.67     519.33
110.77     541.00
110.87     586.32
110.97     544.00
111.07     507.00
111.17     552.59
111.27     569.00
111.37     544.00
111.47     529.00
111.57     503.12
111.67     563.00
111.77     612.00
111.87     598.00
111.97     554.00
112.07     539.00
112.17     591.74
112.27     569.00
112.37     575.50
112.47     566.00
112.57     566.34
112.67     642.02
112.77     611.00
112.87     646.65
112.97     635.00
113.07     687.09
113.17     618.00
113.27     724.00
113.37     693.39
113.47     769.00
113.57     823.79
113.67     780.00
113.77     852.00
113.87     884.00
113.97     903.00
114.07     965.00
114.17    1035.36
114.27    1098.85
114.37    1221.78
114.47    1258.86
114.57    1321.00
114.67    1478.91
114.77    1716.72
114.87    1890.00
114.97    2181.00
115.07    2277.94
115.17    2557.00
115.27    2814.52
115.37    3076.00
115.47    3371.69
115.57    3760.00
115.67    4221.00
115.77    4598.34
115.87    4970.32
115.97    5299.56
116.07    5722.54
116.17    5986.00
116.27    6262.00
116.37    6625.00
116.47    6852.06
116.57    6766.53
116.67    6958.00
116.77    6922.29
116.87    6669.88
116.97    6639.84
117.07    6348.00
117.17    6157.80
117.27    5896.43
117.37    5436.64
117.47    4942.00
117.57    4597.26
117.67    4350.00
117.77    3805.28
117.87    3538.08
117.97    3196.30
118.07    2831.00
118.17    2598.00
118.27    2200.47
118.37    2020.94
118.47    1801.24
118.57    1571.00
118.67    1444.00
118.77    1201.00
118.87    1122.00
118.97    1081.00
119.07     969.00
119.17     844.67
119.27     845.00
119.37     793.00
119.47     797.17
119.57     719.00
119.67     675.69
119.77     692.00
119.87     621.00
119.97     617.00
120.07     601.00
120.17     560.00
120.27     581.89
120.37     569.00
120.47     569.00
120.57     562.00
120.67     600.00
120.77     581.00
120.87     585.00
120.97     582.30
121.07     553.51
121.17     597.00
121.27     592.90
121.37     621.86
121.47     597.00
121.57     595.00
121.67     564.00
121.77     569.00
121.87     613.00
121.97     609.06
122.07     576.00
122.17     601.40
122.27     642.00
122.37     604.00
122.47     599.03
122.57     593.00
122.67     659.00
122.77     595.00
122.87     638.00
122.97     660.15
123.07     612.00
123.17     606.85
123.27     659.00
123.37     688.00
123.47     640.38
123.57     611.00
123.67     675.00
123.77     616.00
123.87     662.00
123.97     656.14
124.07     582.51
124.17     574.76
124.27     585.88
124.37     581.00
124.47     643.81
124.57     570.00
124.67     610.00
124.77     515.00
124.87     612.00
124.97     593.00
