  9.97     539.99
 10.07     625.00
 10.17     606.40
 10.27     613.00
 10.37     615.00
 10.47     550.00
 10.57     607.14
 10.67     571.34
 10.77     561.64
 10.87     614.00
 10.97     559.56
 11.07     576.00
 11.17     609.00
 11.27     558.00
 11.37     594.69
 11.47     542.34
 11.57     602.00
 11.67     661.00
 11.77     631.00
 11.87     570.00
 11.97     676.00
 12.07     664.00
 12.17     738.42
 12.27     697.41
 12.37     670.58
 12.47     609.00
 12.57     644.00
 12.67     601.20
 12.77     567.00
 12.87     600.00
 12.97     615.00
 13.07     546.45
 13.17     555.00
 13.27     574.37
 13.37     599.14
 13.47     556.00
 13.57     569.00
 13.67     566.98
 13.77     562.00
 13.87     539.00
 13.97     586.00
 14.07     541.69
 14.17     597.00
 14.27     574.00
 14.37     542.50
 14.47     595.24
 14.57     520.00
 14.67     554.00
 14.77     526.00
 14.87     566.00
 14.97     548.00
 15.07     575.61
 15.17     568.75
 15.27     560.77
 15.37     556.00
 15.47     573.20
 15.57     598.09
 15.67     541.00
 15.77     545.00
 15.87     526.25
 15.97     527.34
 16.07     585.43
 16.17     604.05
 16.27     538.00
 16.37     560.00
 16.47     549.00
 16.57     611.00
 16.67     561.00
 16.77     569.00
 16.87     534.00
 16.97     534.00
 17.07     570.00
 17.17     552.00
 17.27     536.82
 17.37     558.00
 17.47     591.55
 17.57     557.00
 17.67     527.00
 17.77     583.00
 17.87     564.00
 17.97     565.00
 18.07     549.00
 18.17     516.89
 18.27     544.00
 18.37     577.34
 18.47     563.89
 18.57     546.00
 18.67     577.00
 18.77     522.00
 18.87     568.00
 18.97     543.00
 19.07     540.00
 19.17     550.07
 19.27     560.00
 19.37     594.00
 19.47     524.82
 19.57     565.00
 19.67     503.00
 19.77     562.00
 19.87     537.00
 19.97     558.56
 20.07     576.71
 20.17     552.00
 20.27     599.30
 20.37     562.00
 20.47     551.00
 20.57     492.00
 20.67     520.00
 20.77     492.00
 20.87     581.36
 20.97     575.75
 21.07     541.78
 21.17     538.17
 21.27     553.00
 21.37     513.88
 21.47     527.00
 21.57     589.14
 21.67     527.11
 21.77     532.00
 21.87     504.00
 21.97     553.00
 22.07     564.00
 22.17     575.00
 22.27     569.04
 22.37     539.00
 22.47     543.00
 22.57     551.00
 22.67     542.00
 22.77     556.00
 22.87     548.72
 22.97     549.61
 23.07     547.00
 23.17     572.00
 23.27     532.71
 23.37     527.07
 23.47     518.23
 23.57     582.27
 23.67     561.00
 23.77     553.00
 23.87     532.00
 23.97     585.52
 24.07     509.33
 24.17     546.50
 24.27     589.83
 24.37     574.00
 24.47     559.29
 24.57     640.00
 24.67     608.94
 24.77     621.00
 24.87     588.34
 24.97     643.05
 25.07     558.98
 25.17     525.76
 25.27     533.26
 25.37     556.00
 25.47     560.84
 25.57     580.00
 25.67     546.71
 25.77     511.00
 25.87     557.00
 25.97     523.87
 26.07     559.00
 26.17     513.00
 26.27     562.58
 26.37     583.00
 26.47     576.00
 26.57     550.00
 26.67     555.00
 26.77     539.46
 26.87     577.34
 26.97     553.00
 27.07     559.24
 27.17     535.00
 27.27     573.77
 27.37     559.00
 27.47     563.82
 27.57     522.00
 27.67     570.00
 27.77     615.00
 27.87     635.00
 27.97     687.25
 28.07     750.48
 28.17     850.73
 28.27     927.03
 28.37     919.00
 28.47     774.00
 28.57     654.25
 28.67     700.83
 28.77     692.25
 28.87     814.00
 28.97     805.00
 29.07     843.65
 29.17     735.35
 29.27     643.00
 29.37     558.00
 29.47     572.00
 29.57     592.63
 29.67     575.00
 29.77     556.00
 29.87     545.06
 29.97     583.00
 30.07     537.00
 30.17     607.00
 30.27     551.00
 30.37     607.00
 30.47     537.00
 30.57     554.37
 30.67     555.00
 30.77     600.00
 30.87     658.00
 30.97     615.05
 31.07     583.00
 31.17     562.00
 31.27     566.00
 31.37     547.00
 31.47     546.36
 31.57     541.20
 31.67     519.31
 31.77     551.00
 31.87     536.43
 31.97     548.98
 32.07     528.00
 32.17     513.00
 32.27     502.20
 32.37     485.76
 32.47     577.00
 32.57     541.00
 32.67     543.36
 32.77     563.00
 32.87     491.98
 32.97     545.15
 33.07     560.00
 33.17     576.41
 33.27     572.00
 33.37     544.05
 33.47     545.86
 33.57     638.00
 33.67     679.58
 33.77     690.95
 33.87     916.58
 33.97    1001.00
 34.07    1075.00
 34.17    1001.00
 34.27     841.20
 34.37     761.00
 34.47     644.00
 34.57     540.00
 34.67     571.00
 34.77     557.00
 34.87     558.89
 34.97     540.00
 35.07     486.00
 35.17     538.00
 35.27     477.00
 35.37     546.00
 35.47     530.00
 35.57     527.00
 35.67     510.99
 35.77     490.24
 35.87     536.00
 35.97     504.79
 36.07     528.00
 36.17     522.00
 36.27     495.00
 36.37     498.00
 36.47     542.96
 36.57     505.00
 36.67     517.00
 36.77     549.46
 36.87     512.00
 36.97     519.00
 37.07     528.22
 37.17     529.00
 37.27     524.43
 37.37     526.00
 37.47     566.35
 37.57     550.00
 37.67     507.09
 37.77     490.95
 37.87     512.00
 37.97     514.00
 38.07     492.00
 38.17     480.00
 38.27     533.00
 38.37     492.00
 38.47     502.36
 38.57     496.00
 38.67     528.00
 38.77     489.00
 38.87     522.00
 38.97     546.41
 39.07     500.00
 39.17     507.01
 39.27     546.00
 39.37     471.12
 39.47     497.55
 39.57     454.00
 39.67     548.00
 39.77     481.74
 39.87     516.00
 39.97     490.00
 40.07     495.47
 40.17     529.13
 40.27     542.00
 40.37     510.00
 40.47     525.68
 40.57     519.26
 40.67     530.00
 40.77     542.69
 40.87     476.00
 40.97     468.56
 41.07     502.00
 41.17     492.00
 41.27     474.48
 41.37     489.24
 41.47     477.86
 41.57     460.00
 41.67     501.57
 41.77     519.00
 41.87     517.96
 41.97     508.00
 42.07     488.22
 42.17     497.00
 42.27     533.00
 42.37     529.00
 42.47     545.19
 42.57     602.22
 42.67     598.00
 42.77     627.00
 42.87     537.00
 42.97     540.94
 43.07     520.00
 43.17     533.00
 43.27     497.00
 43.37     527.00
 43.47     506.00
 43.57     480.42
 43.67     541.00
 43.77     503.00
 43.87     484.75
 43.97     546.83
 44.07     515.00
 44.17     523.00
 44.27     479.27
 44.37     468.51
 44.47     534.00
 44.57     549.00
 44.67     505.00
 44.77     505.00
 44.87     529.00
 44.97     517.10
 45.07     480.00
 45.17     530.29
 45.27     539.00
 45.37     527.00
 45.47     490.00
 45.57     544.02
 45.67     488.90
 45.77     498.51
 45.87     503.12
 45.97     497.00
 46.07     487.00
 46.17     520.98
 46.27     532.26
 46.37     515.05
 46.47     521.00
 46.57     533.00
 46.67     541.00
 46.77     534.91
 46.87     495.94
 46.97     587.00
 47.07     519.00
 47.17     516.00
 47.27     505.00
 47.37     526.00
 47.47     543.00
 47.57     557.00
 47.67     553.00
 47.77     617.12
 47.87     582.00
 47.97     600.00
 48.07     573.00
 48.17     609.76
 48.27     571.00
 48.37     546.00
 48.47     538.00
 48.57     551.00
 48.67     572.61
 48.77     581.06
 48.87     524.00
 48.97     513.88
 49.07     523.00
 49.17     609.70
 49.27     563.00
 49.37     583.00
 49.47     685.29
 49.57     680.21
 49.67     856.00
 49.77    1143.00
 49.87    1448.00
 49.97    1869.00
 50.07    2269.00
 50.17    2504.23
 50.27    2465.00
 50.37    2242.75
 50.47    1883.38
 50.57    1353.00
 50.67    1064.44
 50.77     852.00
 50.87     727.00
 50.97     678.00
 51.07     604.00
 51.17     605.00
 51.27     599.00
 51.37     610.00
 51.47     585.43
 51.57     590.00
 51.67     568.98
 51.77     567.51
 51.87     562.00
 51.97     572.59
 52.07     574.74
 52.17     554.00
 52.27     560.00
 52.37     573.57
 52.47     581.00
 52.57     600.00
 52.67     594.00
 52.77     618.00
 52.87     659.40
 52.97     732.00
 53.07     837.00
 53.17     887.00
 53.27    1092.00
 53.37    1145.00
 53.47    1224.41
 53.57    1160.00
 53.67    1065.85
 53.77     946.00
 53.87     922.36
 53.97     775.00
 54.07     658.00
 54.17     647.52
 54.27     571.12
 54.37     603.00
 54.47     561.00
 54.57     582.00
 54.67     556.96
 54.77     580.00
 54.87     587.00
 54.97     573.00
 55.07     560.00
 55.17     541.51
 55.27     601.67
 55.37     541.00
 55.47     579.00
 55.57     563.77
 55.67     590.00
 55.77     590.22
 55.87     598.00
 55.97     614.00
 56.07     650.00
 56.17     779.70
 56.27     884.85
 56.37    1179.00
 56.47    1426.69
 56.57    1795.00
 56.67    2274.14
 56.77    2404.00
 56.87    2591.00
 56.97    2582.00
 57.07    2258.00
 57.17    1992.86
 57.27    1652.00
 57.37    1257.00
 57.47    1099.01
 57.57     872.00
 57.67     806.00
 57.77     697.00
 57.87     702.00
 57.97     688.00
 58.07     688.00
 58.17     726.00
 58.27     765.00
 58.37     856.75
 58.47     948.00
 58.57    1013.00
 58.67    1116.00
 58.77    1285.00
 58.87    1299.90
 58.97    1417.00
 59.07    1403.47
 59.17    1397.00
 59.27    1435.00
 59.37    1262.79
 59.47    1165.06
 59.57    1244.00
 59.67    1150.00
 59.77    1177.56
 59.87    1243.00
 59.97    1378.00
 60.07    1453.00
 60.17    1446.00
 60.27    1565.00
 60.37    1557.23
 60.47    1433.00
 60.57    1220.00
 60.67    1035.00
 60.77     868.87
 60.87     807.41
 60.97     692.00
 61.07     631.00
 61.17     695.00
 61.27     669.00
 61.37     686.00
 61.47     694.89
 61.57     746.00
 61.67     845.00
 61.77     955.92
 61.87    1145.63
 61.97    1251.31
 62.07    1357.00
 62.17    1389.50
 62.27    1350.45
 62.37    1400.83
 62.47    1152.51
 62.57    1057.00
 62.67     891.00
 62.77     762.30
 62.87     708.32
 62.97     606.95
 63.07     618.00
 63.17     562.00
 63.27     563.19
 63.37     563.00
 63.47     636.00
 63.57     604.00
 63.67     598.00
 63.77     600.00
 63.87     670.00
 63.97     711.00
 64.07     696.00
 64.17     785.00
 64.27     836.00
 64.37     922.00
 64.47     959.00
 64.57    1066.00
 64.67    1044.00
 64.77    1026.00
 64.87    1015.08
 64.97     943.82
 65.07     878.51
 65.17     841.33
 65.27     742.00
 65.37     651.00
 65.47     683.00
 65.57     590.00
 65.67     586.00
 65.77     546.00
 65.87     603.05
 65.97     591.03
 66.07     527.00
 66.17     543.00
 66.27     509.00
 66.37     587.32
 66.47     561.00
 66.57     555.00
 66.67     592.18
 66.77     584.62
 66.87     633.95
 66.97     650.26
 67.07     697.34
 67.17     662.00
 67.27     830.04
 67.37     944.00
 67.47    1110.00
 67.57    1266.40
 67.67    1638.00
 67.77    1755.00
 67.87    2094.00
 67.97    2186.95
 68.07    2384.00
 68.17    2447.00
 68.27    2210.26
 68.37    2020.00
 68.47    1749.00
 68.57    1555.42
 68.67    1282.00
 68.77     986.00
 68.87     906.76
 68.97     792.00
 69.07     714.00
 69.17     657.00
 69.27     674.00
 69.37     583.62
 69.47     579.00
 69.57     569.00
 69.67     603.00
 69.77     586.00
 69.87     581.00
 69.97     596.00
 70.07     563.00
 70.17     601.00
 70.27     532.00
 70.37     565.93
 70.47     532.90
 70.57     546.51
 70.67     571.32
 70.77     628.00
 70.87     594.00
 70.97     613.36
 71.07     689.00
 71.17     727.91
 71.27     858.00
 71.37     982.20
 71.47    1161.00
 71.57    1266.00
 71.67    1417.00
 71.77    1568.69
 71.87    1808.00
 71.97    1878.00
 72.07    1902.71
 72.17    1912.00
 72.27    1740.12
 72.37    1655.75
 72.47    1533.00
 72.57    1339.32
 72.67    1089.55
 72.77     985.00
 72.87     887.00
 72.97     865.58
 73.07     749.24
 73.17     705.00
 73.27     672.00
 73.37     672.96
 73.47     639.98
 73.57     615.00
 73.67     624.00
 73.77     558.00
 73.87     622.23
 73.97     633.00
 74.07     553.26
 74.17     565.00
 74.27     538.63
 74.37     624.00
 74.47     615.68
 74.57     607.65
 74.67     637.00
 74.77     646.00
 74.87     586.42
 74.97     583.98
 75.07     608.00
 75.17     589.00
 75.27     587.00
 75.37     567.00
 75.47     566.77
 75.57     528.42
 75.67     556.00
 75.77     566.00
 75.87     610.25
 75.97     592.00
 76.07     621.00
 76.17     606.95
 76.27     744.00
 76.37     712.00
 76.47     745.80
 76.57     651.00
 76.67     724.00
 76.77     705.00
 76.87     722.00
 76.97     669.73
 77.07     612.00
 77.17     559.00
 77.27     592.00
 77.37     527.00
 77.47     601.89
 77.57     545.00
 77.67     544.00
 77.77     539.12
 77.87     535.00
 77.97     546.93
 78.07     494.00
 78.17     522.00
 78.27     513.00
 78.37     515.00
 78.47     538.02
 78.57     491.00
 78.67     537.76
 78.77     526.00
 78.87     541.00
 78.97     521.15
 79.07     544.39
 79.17     526.43
 79.27     527.00
 79.37     529.00
 79.47     500.07
 79.57     485.00
 79.67     521.03
 79.77     557.00
 79.87     588.39
 79.97     533.00
 80.07     597.41
 80.17     514.00
 80.27     545.00
 80.37     599.00
 80.47     589.00
 80.57     576.29
 80.67     631.00
 80.77     650.13
 80.87     705.00
 80.97     727.41
 81.07     753.01
 81.17     754.00
 81.27     731.00
 81.37     746.39
 81.47     717.00
 81.57     733.00
 81.67     738.00
 81.77     703.16
 81.87     751.16
 81.97     680.10
 82.07     667.00
 82.17     643.59
 82.27     603.00
 82.37     581.00
 82.47     624.30
 82.57     586.00
 82.67     558.00
 82.77     562.00
 82.87     584.47
 82.97     544.21
 83.07     533.00
 83.17     543.00
 83.27     584.00
 83.37     560.00
 83.47     553.81
 83.57     531.00
 83.67     551.00
 83.77     520.00
 83.87     596.00
 83.97     542.00
 84.07     637.00
 84.17     605.00
 84.27     537.00
 84.37     600.55
 84.47     533.87
 84.57     537.00
 84.67     545.57
 84.77     523.00
 84.87     522.00
 84.97     548.00
 85.07     521.08
 85.17     544.10
 85.27     548.00
 85.37     531.00
 85.47     546.00
 85.57     520.53
 85.67     532.07
 85.77     541.00
 85.87     554.00
 85.97     510.68
 86.07     547.00
 86.17     575.00
 86.27     533.12
 86.37     530.00
 86.47     592.00
 86.57     557.00
 86.67     574.00
 86.77     559.00
 86.87     566.00
 86.97     635.15
 87.07     631.36
 87.17     649.00
 87.27     621.00
 87.37     656.00
 87.47     619.00
 87.57     665.14
 87.67     601.93
 87.77     678.00
 87.87     606.00
 87.97     616.00
 88.07     627.00
 88.17     603.00
 88.27     613.00
 88.37     559.00
 88.47     613.00
 88.57     562.00
 88.67     589.00
 88.77     576.00
 88.87     590.00
 88.97     598.00
 89.07     613.00
 89.17     606.11
 89.27     640.00
 89.37     561.00
 89.47     582.52
 89.57     623.91
 89.67     577.69
 89.77     561.54
 89.87     536.00
 89.97     583.11
 90.07     570.00
 90.17     530.00
 90.27     521.54
 90.37     533.00
 90.47     571.00
 90.57     533.00
 90.67     537.00
 90.77     559.00
 90.87     503.00
 90.97     518.00
 91.07     555.00
 91.17     565.79
 91.27     501.00
 91.37     520.00
 91.47     549.00
 91.57     526.68
 91.67     522.00
 91.77     528.42
 91.87     541.00
 91.97     570.00
 92.07     538.62
 92.17     599.00
 92.27     552.00
 92.37     586.00
 92.47     616.00
 92.57     642.00
 92.67     634.00
 92.77     689.00
 92.87     734.33
 92.97     728.00
 93.07     739.00
 93.17     707.00
 93.27     799.00
 93.37     749.00
 93.47     851.00
 93.57     830.00
 93.67     838.00
 93.77     832.00
 93.87     826.00
 93.97     846.99
 94.07     781.29
 94.17     835.20
 94.27     811.85
 94.37     872.48
 94.47     876.00
 94.57     944.00
 94.67     969.00
 94.77     919.00
 94.87     866.00
 94.97     896.00
 95.07     857.00
 95.17     857.43
 95.27     891.00
 95.37     743.07
 95.47     819.00
 95.57     741.44
 95.67     752.00
 95.77     696.00
 95.87     714.00
 95.97     706.00
 96.07     669.20
 96.17     725.00
 96.27     752.00
 96.37     800.00
 96.47     768.14
 96.57     811.00
 96.67     956.00
 96.77     970.00
 96.87    1019.39
 96.97    1128.00
 97.07    1233.00
 97.17    1321.47
 97.27    1380.00
 97.37    1384.00
 97.47    1428.13
 97.57    1497.00
 97.67    1490.55
 97.77    1412.22
 97.87    1457.00
 97.97    1238.16
 98.07    1213.00
 98.17    1147.00
 98.27    1071.00
 98.37    1077.03
 98.47    1010.61
 98.57     891.00
 98.67     789.00
 98.77     831.00
 98.87     826.00
 98.97     847.00
 99.07     864.82
 99.17     868.00
 99.27     859.58
 99.37     928.00
 99.47    1037.00
 99.57    1133.00
 99.67    1187.00
 99.77    1339.00
 99.87    1366.88
 99.97    1527.00
100.07    1602.36
100.17    1811.28
100.27    1807.52
100.37    1908.00
100.47    2008.00
100.57    1945.74
100.67    1970.52
100.77    2068.13
100.87    1988.00
100.97    1955.00
101.07    1903.00
101.17    1854.00
101.27    1812.41
101.37    1681.00
101.47    1610.40
101.57    1435.00
101.67    1443.00
101.77    1396.85
101.87    1283.00
101.97    1209.34
102.07    1222.00
102.17    1215.19
102.27    1174.00
102.37    1122.00
102.47    1117.00
102.57    1038.00
102.67    1025.00
102.77    1051.00
102.87    1058.00
102.97     999.00
103.07     878.50
103.17     881.00
103.27     865.60
103.37     786.00
103.47     758.55
103.57     755.00
103.67     700.00
103.77     688.16
103.87     621.35
103.97     627.24
104.07     645.67
104.17     580.00
104.27     594.00
104.37     544.70
104.47     575.07
104.57     510.11
104.67     567.00
104.77     528.00
104.87     556.81
104.97     498.00
105.07     553.00
105.17     519.24
105.27     541.00
105.37     583.00
105.47     528.00
105.57     498.11
105.67     527.05
105.77     539.00
105.87     531.65
105.97     538.52
106.07     569.00
106.17     594.00
106.27     593.00
106.37     630.91
106.47     588.00
106.57     584.04
106.67     611.24
106.77     648.54
106.87     635.00
106.97     689.00
107.07     730.05
107.17     684.00
107.27     692.00
107.37     729.53
107.47     688.00
107.57     642.00
107.67     649.00
107.77     709.41
107.87     667.48
107.97     689.00
108.07     717.00
108.17     653.55
108.27     647.31
108.37     723.28
108.47     708.00
108.57     721.00
108.67     784.00
108.77     680.78
108.87     728.00
108.97     720.00
109.07     689.00
109.17     641.00
109.27     643.00
109.37     670.54
109.47     634.00
109.57     642.00
109.67     646.00
109.77     645.00
109.87     639.00
109.97     589.82
110.07     584.00
110.17     538.70
110.27     523.17
110.37     562.00
110.47     545.00
110.57     527.00
110.67     526.50
110.77     504.86
110.87     545.00
110.97     492.34
111.07     531.00
111.17     574.00
111.27     556.00
111.37     519.79
111.47     614.00
111.57     576.00
111.67     525.00
111.77     530.00
111.87     579.00
111.97     556.00
112.07     524.00
112.17     541.00
112.27     533.00
112.37     597.00
112.47     619.16
112.57     547.00
112.67     558.00
112.77     637.00
112.87     618.00
112.97     598.00
113.07     672.00
113.17     643.01
113.27     690.00
113.37     756.69
113.47     704.00
113.57     784.56
113.67     733.00
113.77     807.00
113.87     883.95
113.97     934.00
114.07     892.00
114.17     976.00
114.27    1024.00
114.37    1140.82
114.47    1271.00
114.57    1417.00
114.67    1485.54
114.77    1619.71
114.87    1937.00
114.97    2135.00
115.07    2275.74
115.17    2418.94
115.27    2828.36
115.37    3097.00
115.47    3423.04
115.57    3899.00
115.67    4145.00
115.77    4631.14
115.87    4880.13
115.97    5247.00
116.07    5487.25
116.17    6094.00
116.27    6281.29
116.37    6517.00
116.47    6829.00
116.57    6902.00
116.67    6813.19
116.77    6840.45
116.87    6669.00
116.97    6453.14
117.07    6310.00
117.17    5925.00
117.27    5502.00
117.37    5056.00
117.47    4840.00
117.57    4518.00
117.67    4228.00
117.77    3884.00
117.87    3586.00
117.97    3151.00
118.07    2888.05
118.17    2451.00
118.27    2196.07
118.37    2011.00
118.47    1858.65
118.57    1512.00
118.67    1474.00
118.77    1254.00
118.87    1165.00
118.97    1049.00
119.07     973.06
119.17     911.00
119.27     827.00
119.37     785.00
119.47     770.00
119.57     753.57
119.67     656.09
119.77     630.00
119.87     599.00
119.97     602.30
120.07     629.28
120.17     592.23
120.27     618.19
120.37     561.00
120.47     549.12
120.57     584.00
120.67     580.00
120.77     613.83
120.87     606.00
120.97     574.00
121.07     557.00
121.17     577.45
121.27     592.00
121.37     571.69
121.47     582.00
121.57     580.00
121.67     613.00
121.77     563.00
121.87     612.00
121.97     616.00
122.07     632.00
122.17     608.00
122.27     575.04
122.37     665.75
122.47     655.25
122.57     612.00
122.67     657.00
122.77     649.00
122.87     592.80
122.97     637.00
123.07     610.39
123.17     666.05
123.27     645.81
123.37     665.00
123.47     615.85
123.57     674.27
123.67     654.00
123.77     633.41
123.87     643.00
123.97     675.00
124.07     572.53
124.17     586.27
124.27     643.00
124.37     591.00
124.47     647.00
124.57     555.93
124.67     562.11
124.77     570.00
124.87     603.00
124.97     590.00
