  9.97     596.00
 10.07     610.00
 10.17     607.00
 10.27     538.95
 10.37     600.00
 10.47     607.00
 10.57     551.00
 10.67     546.84
 10.77     595.75
 10.87     591.71
 10.97     624.00
 11.07     588.00
 11.17     568.00
 11.27     564.00
 11.37     565.00
 11.47     580.00
 11.57     625.00
 11.67     545.83
 11.77     663.00
 11.87     635.00
 11.97     618.60
 12.07     618.40
 12.17     677.00
 12.27     727.46
 12.37     638.00
 12.47     645.00
 12.57     577.00
 12.67     630.00
 12.77     590.89
 12.87     550.00
 12.97     519.00
 13.07     525.00
 13.17     536.00
 13.27     553.00
 13.37     581.00
 13.47     542.70
 13.57     583.00
 13.67     511.00
 13.77     585.00
 13.87     554.00
 13.97     614.09
 14.07     526.00
 14.17     571.60
 14.27     563.00
 14.37     551.00
 14.47     559.00
 14.57     575.01
 14.67     586.00
 14.77     582.00
 14.87     596.00
 14.97     510.00
 15.07     562.57
 15.17     542.00
 15.27     527.26
 15.37     553.44
 15.47     600.00
 15.57     605.47
 15.67     570.00
 15.77     593.00
 15.87     607.73
 15.97     525.00
 16.07     520.98
 16.17     540.00
 16.27     606.37
 16.37     556.00
 16.47     578.00
 16.57     591.00
 16.67     569.45
 16.77     605.43
 16.87     565.92
 16.97     541.00
 17.07     528.26
 17.17     527.00
 17.27     546.00
 17.37     563.00
 17.47     576.00
 17.57     571.00
 17.67     523.00
 17.77     578.00
 17.87     578.00
 17.97     526.00
 18.07     577.29
 18.17     567.00
 18.27     571.00
 18.37     518.92
 18.47     570.93
 18.57     517.00
 18.67     524.59
 18.77     571.00
 18.87     573.93
 18.97     530.92
 19.07     545.00
 19.17     554.00
 19.27     549.17
 19.37     551.06
 19.47     586.95
 19.57     540.00
 19.67     589.99
 19.77     566.00
 19.87     559.00
 19.97     550.00
 20.07     559.00
 20.17     576.00
 20.27     554.00
 20.37     567.00
 20.47     498.00
 20.57     550.00
 20.67     570.00
 20.77     541.00
 20.87     542.00
 20.97     525.00
 21.07     578.00
 21.17     579.51
 21.27     558.00
 21.37     548.67
 21.47     506.25
 21.57     549.00
 21.67     563.10
 21.77     514.65
 21.87     592.96
 21.97     514.00
 22.07     569.41
 22.17     533.00
 22.27     601.00
 22.37     575.72
 22.47     597.00
 22.57     541.25
 22.67     579.31
 22.77     515.13
 22.87     547.66
 22.97     505.04
 23.07     567.00
 23.17     534.82
 23.27     569.00
 23.37     534.00
 23.47     514.00
 23.57     502.75
 23.67     559.00
 23.77     549.43
 23.87     559.00
 23.97     558.72
 24.07     552.00
 24.17     539.00
 24.27     577.00
 24.37     580.00
 24.47     598.00
 24.57     587.04
 24.67     610.00
 24.77     612.00
 24.87     620.00
 24.97     652.25
 25.07     589.00
 25.17     602.00
 25.27     543.60
 25.37     575.00
 25.47     545.00
 25.57     552.00
 25.67     498.99
 25.77     510.07
 25.87     572.75
 25.97     589.38
 26.07     579.94
 26.17     584.00
 26.27     539.00
 26.37     613.00
 26.47     562.00
 26.57     499.45
 26.67     572.00
 26.77     521.00
 26.87     574.98
 26.97     490.98
 27.07     581.76
 27.17     561.50
 27.27     574.57
 27.37     557.00
 27.47     522.00
 27.57     545.00
 27.67     534.00
 27.77     557.00
 27.87     582.00
 27.97     655.00
 28.07     802.00
 28.17     850.00
 28.27    1027.00
 28.37     915.00
 28.47     796.00
 28.57     700.00
 28.67     657.29
 28.77     697.14
 28.87     808.00
 28.97     819.00
 29.07     864.23
 29.17     738.32
 29.27     625.00
 29.37     606.00
 29.47     600.74
 29.57     631.00
 29.67     534.82
 29.77     594.00
 29.87     616.61
 29.97     569.00
 30.07     574.48
 30.17     533.00
 30.27     527.00
 30.37     548.00
 30.47     511.35
 30.57     543.00
 30.67     613.00
 30.77     617.00
 30.87     631.00
 30.97     606.00
 31.07     608.00
 31.17     574.51
 31.27     546.97
 31.37     542.00
 31.47     550.00
 31.57     536.00
 31.67     498.53
 31.77     530.00
 31.87     515.70
 31.97     552.00
 32.07     518.99
 32.17     548.00
 32.27     568.00
 32.37     511.00
 32.47     499.90
 32.57     531.00
 32.67     554.68
 32.77     533.73
 32.87     553.00
 32.97     563.00
 33.07     557.03
 33.17     528.00
 33.27     542.00
 33.37     572.83
 33.47     567.00
 33.57     575.00
 33.67     630.00
 33.77     709.00
 33.87     855.00
 33.97     981.00
 34.07    1078.00
 34.17    1070.00
 34.27     922.72
 34.37     788.00
 34.47     635.27
 34.57     609.37
 34.67     595.86
 34.77     515.00
 34.87     514.00
 34.97     512.00
 35.07     495.69
 35.17     481.00
 35.27     530.00
 35.37     501.11
 35.47     528.42
 35.57     527.53
 35.67     552.21
 35.77     480.00
 35.87     521.00
 35.97     477.58
 36.07     527.68
 36.17     499.00
 36.27     476.49
 36.37     488.00
 36.47     486.00
 36.57     482.00
 36.67     507.00
 36.77     533.00
 36.87     499.00
 36.97     476.00
 37.07     506.83
 37.17     497.00
 37.27     530.00
 37.37     507.00
 37.47     500.00
 37.57     500.11
 37.67     523.14
 37.77     526.00
 37.87     563.65
 37.97     523.00
 38.07     537.79
 38.17     558.50
 38.27     501.72
 38.37     488.69
 38.47     494.84
 38.57     496.00
 38.67     513.00
 38.77     492.00
 38.87     506.44
 38.97     485.00
 39.07     490.00
 39.17     490.52
 39.27     496.00
 39.37     509.00
 39.47     524.00
 39.57     559.00
 39.67     478.00
 39.77     485.00
 39.87     496.00
 39.97     457.00
 40.07     529.03
 40.17     512.00
 40.27     527.00
 40.37     511.57
 40.47     464.26
 40.57     493.55
 40.67     513.12
 40.77     545.21
 40.87     499.00
 40.97     549.40
 41.07     494.00
 41.17     476.00
 41.27     487.00
 41.37     509.30
 41.47     518.00
 41.57     484.00
 41.67     541.00
 41.77     489.00
 41.87     501.00
 41.97     498.00
 42.07     483.00
 42.17     519.00
 42.27     546.00
 42.37     513.00
 42.47     614.45
 42.57     622.00
 42.67     556.00
 42.77     587.40
 42.87     585.58
 42.97     541.00
 43.07     593.00
 43.17     518.63
 43.27     510.00
 43.37     527.00
 43.47     470.69
 43.57     510.00
 43.67     508.00
 43.77     470.00
 43.87     539.51
 43.97     479.80
 44.07     501.06
 44.17     543.96
 44.27     533.00
 44.37     524.00
 44.47     460.00
 44.57     470.16
 44.67     500.00
 44.77     480.11
 44.87     479.00
 44.97     551.00
 45.07     486.00
 45.17     548.00
 45.27     509.00
 45.37     534.51
 45.47     525.87
 45.57     510.96
 45.67     535.77
 45.77     481.00
 45.87     503.00
 45.97     500.45
 46.07     509.00
 46.17     520.67
 46.27     476.00
 46.37     464.00
 46.47     498.00
 46.57     515.00
 46.67     527.03
 46.77     530.73
 46.87     478.00
 46.97     508.00
 47.07     463.63
 47.17     512.00
 47.27     521.00
 47.37     501.00
 47.47     526.00
 47.57     544.00
 47.67     583.62
 47.77     593.00
 47.87     603.00
 47.97     541.57
 48.07     561.00
 48.17     544.00
 48.27     551.00
 48.37     560.00
 48.47     520.00
 48.57     525.00
 48.67     514.00
 48.77     531.00
 48.87     532.66
 48.97     526.00
 49.07     604.52
 49.17     538.00
 49.27     611.75
 49.37     699.00
 49.47     690.00
 49.57     737.00
 49.67     866.00
 49.77    1076.00
 49.87    1365.00
 49.97    1718.00
 50.07    2180.00
 50.17    2593.63
 50.27    2554.62
 50.37    2437.21
 50.47    1974.00
 50.57    1529.00
 50.67    1104.00
 50.77     872.93
 50.87     736.25
 50.97     659.00
 51.07     644.00
 51.17     626.00
 51.27     616.00
 51.37     532.33
 51.47     571.00
 51.57     587.00
 51.67     558.65
 51.77     565.00
 51.87     501.00
 51.97     513.61
 52.07     573.30
 52.17     544.00
 52.27     554.87
 52.37     538.00
 52.47     590.00
 52.57     579.00
 52.67     515.45
 52.77     628.00
 52.87     590.00
 52.97     702.00
 53.07     754.00
 53.17     912.00
 53.27     904.23
 53.37    1088.00
 53.47    1155.00
 53.57    1134.00
 53.67    1137.53
 53.77    1062.00
 53.87     967.86
 53.97     789.51
 54.07     675.00
 54.17     688.00
 54.27     620.00
 54.37     631.00
 54.47     552.35
 54.57     581.00
 54.67     569.00
 54.77     552.00
 54.87     537.00
 54.97     543.00
 55.07     566.00
 55.17     508.19
 55.27     528.52
 55.37     567.09
 55.47     557.00
 55.57     532.00
 55.67     544.00
 55.77     602.00
 55.87     542.36
 55.97     622.00
 56.07     661.04
 56.17     708.08
 56.27     827.00
 56.37    1022.37
 56.47    1259.00
 56.57    1593.00
 56.67    1970.73
 56.77    2331.00
 56.87    2551.09
 56.97    2713.50
 57.07    2487.00
 57.17    2168.51
 57.27    1816.00
 57.37    1446.00
 57.47    1114.00
 57.57     912.62
 57.67     772.00
 57.77     672.13
 57.87     663.62
 57.97     672.00
 58.07     674.00
 58.17     706.00
 58.27     727.00
 58.37     836.00
 58.47     920.00
 58.57    1143.36
 58.67    1205.55
 58.77    1410.14
 58.87    1527.00
 58.97    1545.24
 59.07    1615.00
 59.17    1596.00
 59.27    1465.00
 59.37    1324.28
 59.47    1365.00
 59.57    1263.00
 59.67    1185.00
 59.77    1113.55
 59.87    1206.00
 59.97    1261.00
 60.07    1393.00
 60.17    1586.00
 60.27    1598.00
 60.37    1558.00
 60.47    1496.96
 60.57    1334.00
 60.67    1122.79
 60.77     902.00
 60.87     819.00
 60.97     666.00
 61.07     693.00
 61.17     591.66
 61.27     652.96
 61.37     598.00
 61.47     675.00
 61.57     752.76
 61.67     832.00
 61.77     882.00
 61.87    1045.00
 61.97    1192.64
 62.07    1245.00
 62.17    1378.52
 62.27    1374.00
 62.37    1418.57
 62.47    1242.00
 62.57    1053.00
 62.67     989.64
 62.77     825.00
 62.87     706.00
 62.97     637.00
 63.07     586.71
 63.17     626.65
 63.27     599.05
 63.37     580.00
 63.47     585.17
 63.57     576.96
 63.67     552.00
 63.77     545.73
 63.87     613.17
 63.97     642.00
 64.07     715.57
 64.17     779.00
 64.27     821.40
 64.37     909.00
 64.47     862.81
 64.57     965.59
 64.67    1048.40
 64.77    1016.00
 64.87    1013.00
 64.97     989.36
 65.07     908.26
 65.17     802.41
 65.27     737.00
 65.37     656.00
 65.47     668.15
 65.57     639.14
 65.67     587.00
 65.77     594.00
 65.87     588.00
 65.97     571.00
 66.07     525.75
 66.17     536.93
 66.27     546.00
 66.37     513.75
 66.47     531.00
 66.57     546.00
 66.67     553.39
 66.77     546.00
 66.87     530.77
 66.97     551.75
 67.07     620.00
 67.17     646.00
 67.27     642.00
 67.37     761.00
 67.47    1003.00
 67.57    1092.48
 67.67    1429.00
 67.77    1633.00
 67.87    1976.00
 67.97    2228.48
 68.07    2429.00
 68.17    2377.00
 68.27    2404.85
 68.37    2147.72
 68.47    1953.00
 68.57    1558.57
 68.67    1312.06
 68.77    1131.00
 68.87     915.00
 68.97     855.04
 69.07     697.00
 69.17     674.00
 69.27     652.00
 69.37     595.00
 69.47     607.00
 69.57     597.00
 69.67     596.00
 69.77     616.00
 69.87     608.00
 69.97     579.00
 70.07     593.00
 70.17     547.58
 70.27     598.57
 70.37     583.65
 70.47     591.00
 70.57     585.00
 70.67     591.00
 70.77     608.00
 70.87     586.00
 70.97     615.00
 71.07     682.48
 71.17     683.00
 71.27     760.43
 71.37     829.32
 71.47    1012.00
 71.57    1125.00
 71.67    1284.00
 71.77    1536.00
 71.87    1628.08
 71.97    1846.00
 72.07    1968.00
 72.17    1908.00
 72.27    1929.19
 72.37    1643.76
 72.47    1600.00
 72.57    1448.00
 72.67    1342.00
 72.77    1162.00
 72.87     987.00
 72.97    1053.16
 73.07     898.00
 73.17     914.35
 73.27     803.31
 73.37     733.00
 73.47     678.00
 73.57     709.89
 73.67     598.00
 73.77     630.27
 73.87     633.79
 73.97     608.17
 74.07     562.18
 74.17     586.00
 74.27     564.07
 74.37     594.73
 74.47     619.00
 74.57     619.00
 74.67     655.00
 74.77     544.74
 74.87     624.00
 74.97     527.84
 75.07     546.93
 75.17     614.00
 75.27     538.42
 75.37     509.45
 75.47     570.00
 75.57     595.00
 75.67     587.00
 75.77     585.00
 75.87     615.56
 75.97     622.35
 76.07     539.00
 76.17     606.69
 76.27     659.00
 76.37     701.00
 76.47     677.00
 76.57     679.00
 76.67     713.00
 76.77     681.00
 76.87     678.31
 76.97     609.25
 77.07     623.00
 77.17     568.84
 77.27     569.00
 77.37     565.00
 77.47     562.00
 77.57     492.00
 77.67     526.26
 77.77     569.89
 77.87     514.00
 77.97     536.28
 78.07     544.79
 78.17     536.00
 78.27     529.00
 78.37     517.21
 78.47     528.00
 78.57     503.00
 78.67     535.00
 78.77     573.31
 78.87     511.00
 78.97     543.00
 79.07     524.00
 79.17     514.13
 79.27     565.70
 79.37     538.00
 79.47     521.00
 79.57     532.00
 79.67     526.00
 79.77     535.00
 79.87     552.00
 79.97     572.43
 80.07     533.53
 80.17     556.00
 80.27     552.74
 80.37     574.00
 80.47     563.00
 80.57     602.00
 80.67     605.86
 80.77     654.69
 80.87     636.00
 80.97     664.00
 81.07     681.07
 81.17     705.00
 81.27     768.00
 81.37     747.67
 81.47     778.52
 81.57     785.70
 81.67     758.83
 81.77     756.00
 81.87     723.00
 81.97     683.00
 82.07     629.00
 82.17     702.00
 82.27     623.00
 82.37     578.57
 82.47     635.62
 82.57     613.00
 82.67     599.00
 82.77     569.00
 82.87     544.00
 82.97     577.00
 83.07     522.93
 83.17     514.00
 83.27     519.00
 83.37     586.25
 83.47     586.50
 83.57     530.21
 83.67     534.00
 83.77     591.00
 83.87     608.00
 83.97     548.04
 84.07     590.00
 84.17     597.00
 84.27     547.00
 84.37     553.00
 84.47     599.27
 84.57     580.59
 84.67     544.00
 84.77     489.00
 84.87     543.56
 84.97     522.00
 85.07     512.00
 85.17     556.00
 85.27     533.00
 85.37     507.00
 85.47     478.89
 85.57     540.00
 85.67     530.00
 85.77     558.00
 85.87     504.00
 85.97     500.00
 86.07     480.00
 86.17     553.22
 86.27     561.98
 86.37     580.34
 86.47     528.00
 86.57     572.00
 86.67     578.00
 86.77     551.62
 86.87     531.00
 86.97     610.42
 87.07     569.97
 87.17     617.00
 87.27     630.48
 87.37     614.00
 87.47     685.00
 87.57     650.00
 87.67     660.00
 87.77     660.00
 87.87     634.00
 87.97     560.58
 88.07     586.18
 88.17     606.72
 88.27     603.00
 88.37     604.00
 88.47     567.00
 88.57     583.00
 88.67     544.36
 88.77     589.94
 88.87     587.00
 88.97     589.45
 89.07     626.00
 89.17     622.00
 89.27     578.66
 89.37     596.00
 89.47     605.00
 89.57     586.78
 89.67     616.00
 89.77     590.38
 89.87     586.26
 89.97     548.34
 90.07     569.00
 90.17     554.00
 90.27     539.23
 90.37     517.38
 90.47     530.78
 90.57     551.00
 90.67     486.17
 90.77     524.00
 90.87     521.52
 90.97     549.00
 91.07     479.00
 91.17     550.00
 91.27     509.00
 91.37     499.00
 91.47     505.84
 91.57     538.00
 91.67     507.00
 91.77     495.24
 91.87     583.81
 91.97     552.39
 92.07     532.00
 92.17     547.00
 92.27     551.00
 92.37     616.14
 92.47     595.00
 92.57     639.71
 92.67     664.00
 92.77     644.53
 92.87     722.00
 92.97     731.00
 93.07     769.00
 93.17     780.87
 93.27     811.00
 93.37     758.00
 93.47     753.00
 93.57     764.32
 93.67     863.00
 93.77     786.00
 93.87     830.00
 93.97     846.00
 94.07     877.00
 94.17     884.00
 94.27     876.18
 94.37     864.02
 94.47     870.00
 94.57     875.00
 94.67     905.00
 94.77     938.00
 94.87     908.00
 94.97     875.00
 95.07     887.00
 95.17     901.29
 95.27     813.57
 95.37     844.01
 95.47     793.00
 95.57     744.50
 95.67     800.00
 95.77     672.24
 95.87     663.60
 95.97     635.00
 96.07     671.00
 96.17     652.00
 96.27     685.86
 96.37     734.00
 96.47     762.32
 96.57     805.77
 96.67     840.00
 96.77     922.45
 96.87    1006.00
 96.97    1046.00
 97.07    1166.45
 97.17    1213.00
 97.27    1246.16
 97.37    1406.00
 97.47    1456.00
 97.57    1385.90
 97.67    1461.80
 97.77    1441.00
 97.87    1317.00
 97.97    1269.00
 98.07    1234.72
 98.17    1231.00
 98.27    1124.00
 98.37    1104.91
 98.47     938.00
 98.57     929.00
 98.67     878.00
 98.77     880.00
 98.87     830.00
 98.97     827.00
 99.07     769.00
 99.17     817.00
 99.27     862.16
 99.37     841.00
 99.47     951.00
 99.57    1077.97
 99.67    1149.39
 99.77    1216.00
 99.87    1338.16
 99.97    1442.00
100.07    1549.68
100.17    1781.00
100.27    1812.00
100.37    1874.00
100.47    1891.37
100.57    2026.25
100.67    2122.00
100.77    2095.00
100.87    2194.00
100.97    2064.00
101.07    2075.00
101.17    1884.00
101.27    1911.04
101.37    1788.00
101.47    1684.00
101.57    1548.00
101.67    1490.00
101.77    1373.00
101.87    1352.00
101.97    1360.47
102.07    1225.00
102.17    1086.00
102.27    1195.57
102.37    1164.00
102.47    1152.82
102.57    1052.07
102.67    1079.00
102.77    1093.55
102.87    1000.00
102.97     952.38
103.07     982.00
103.17     895.88
103.27     857.00
103.37     822.00
103.47     839.91
103.57     725.00
103.67     665.44
103.77     703.87
103.87     668.00
103.97     631.38
104.07     605.00
104.17     610.00
104.27     564.00
104.37     574.00
104.47     580.00
104.57     540.00
104.67     561.05
104.77     583.00
104.87     543.00
104.97     558.00
105.07     546.00
105.17     526.74
105.27     497.00
105.37     578.00
105.47     573.66
105.57     515.36
105.67     494.96
105.77     544.00
105.87     580.49
105.97     546.00
106.07     561.00
106.17     615.00
106.27     561.00
106.37     593.00
106.47     641.89
106.57     583.00
106.67     594.00
106.77     593.00
106.87     639.00
106.97     604.00
107.07     635.00
107.17     643.55
107.27     709.62
107.37     689.00
107.47     676.00
107.57     719.68
107.67     680.96
107.77     734.44
107.87     686.00
107.97     692.97
108.07     687.00
108.17     718.05
108.27     639.00
108.37     708.00
108.47     663.00
108.57     714.00
108.67     684.15
108.77     675.00
108.87     682.00
108.97     663.00
109.07     658.00
109.17     642.39
109.27     679.00
109.37     690.00
109.47     649.00
109.57     654.00
109.67     593.00
109.77     596.26
109.87     571.82
109.97     609.00
110.07     545.00
110.17     595.00
110.27     542.11
110.37     594.15
110.47     570.00
110.57     500.49
110.67     521.00
110.77     536.00
110.87     512.00
110.97     543.14
111.07     550.74
111.17     517.87
111.27     548.05
111.37     490.95
111.47     584.00
111.57     568.52
111.67     533.53
111.77     564.06
111.87     576.00
111.97     528.96
112.07     537.20
112.17     564.00
112.27     582.00
112.37     560.00
112.47     589.00
112.57     556.22
112.67     626.00
112.77     584.00
112.87     634.00
112.97     656.00
113.07     623.01
113.17     687.00
113.27     737.00
113.37     725.00
113.47     787.00
113.57     835.85
113.67     896.00
113.77     905.51
113.87     891.63
113.97    1010.00
114.07    1052.00
114.17    1124.00
114.27    1130.00
114.37    1218.00
114.47    1248.00
114.57    1355.00
114.67    1555.00
114.77    1624.00
114.87    1819.71
114.97    1903.45
115.07    2171.42
115.17    2449.00
115.27    2618.00
115.37    2815.00
115.47    3212.00
115.57    3543.00
115.67    3867.02
115.77    4264.00
115.87    4625.18
115.97    4873.00
116.07    5349.00
116.17    5901.92
116.27    5980.00
116.37    6616.00
116.47    6822.00
116.57    7063.96
116.67    7113.00
116.77    7048.00
116.87    7104.00
116.97    7010.00
117.07    6807.00
117.17    6391.56
117.27    6055.33
117.37    5697.00
117.47    5303.00
117.57    5058.00
117.67    4593.00
117.77    4414.66
117.87    3773.03
117.97    3686.00
118.07    3159.67
118.17    2887.00
118.27    2408.12
118.37    2191.00
118.47    2000.00
118.57    1704.00
118.67    1480.61
118.77    1391.56
118.87    1233.00
118.97    1071.00
119.07    1007.00
119.17     921.00
119.27     849.99
119.37     842.86
119.47     764.03
119.57     702.00
119.67     720.00
119.77     657.00
119.87     631.00
119.97     571.00
120.07     611.00
120.17     599.00
120.27     603.94
120.37     549.54
120.47     536.00
120.57     568.85
120.67     595.06
120.77     557.00
120.87     583.00
120.97     612.01
121.07     580.81
121.17     527.85
121.27     544.00
121.37     556.78
121.47     621.39
121.57     611.05
121.67     581.00
121.77     557.70
121.87     592.00
121.97     565.22
122.07     647.11
122.17     616.00
122.27     648.00
122.37     594.00
122.47     603.00
122.57     628.13
122.67     617.00
122.77     603.99
122.87     636.14
122.97     615.00
123.07     647.00
123.17     631.00
123.27     603.76
123.37     679.00
123.47     614.60
123.57     655.00
123.67     622.00
123.77     663.79
123.87     649.00
123.97     603.13
124.07     595.39
124.17     641.00
124.27     619.97
124.37     642.00
124.47     589.31
124.57     606.00
124.67     563.00
124.77     616.37
124.87     572.00
124.97     567.00
