  9.97     711.00
 10.07     700.00
 10.17     667.86
 10.27     783.00
 10.37     720.00
 10.47     711.00
 10.57     680.00
 10.67     733.00
 10.77     688.00
 10.87     708.23
 10.97     697.00
 11.07     697.00
 11.17     721.02
 11.27     668.86
 11.37     724.00
 11.47     705.44
 11.57     746.00
 11.67     793.00
 11.77     752.00
 11.87     801.00
 11.97     713.52
 12.07     733.80
 12.17     818.00
 12.27     810.00
 12.37     836.00
 12.47     810.00
 12.57     778.00
 12.67     711.00
 12.77     671.00
 12.87     724.62
 12.97     667.20
 13.07     635.00
 13.17     642.45
 13.27     685.00
 13.37     634.00
 13.47     628.00
 13.57     630.00
 13.67     694.00
 13.77     650.00
 13.87     663.00
 13.97     691.54
 14.07     645.00
 14.17     704.21
 14.27     716.71
 14.37     694.00
 14.47     708.87
 14.57     627.06
 14.67     613.72
 14.77     660.00
 14.87     615.00
 14.97     701.66
 15.07     673.33
 15.17     626.72
 15.27     632.00
 15.37     625.89
 15.47     668.00
 15.57     665.86
 15.67     642.00
 15.77     661.02
 15.87     697.00
 15.97     669.00
 16.07     669.00
 16.17     660.00
 16.27     634.00
 16.37     616.77
 16.47     637.00
 16.57     641.00
 16.67     611.20
 16.77     641.00
 16.87     617.35
 16.97     628.00
 17.07     603.00
 17.17     666.00
 17.27     643.00
 17.37     622.00
 17.47     677.86
 17.57     646.00
 17.67     647.00
 17.77     604.02
 17.87     625.00
 17.97     658.89
 18.07     618.38
 18.17     618.03
 18.27     574.00
 18.37     646.00
 18.47     662.93
 18.57     642.00
 18.67     655.00
 18.77     622.00
 18.87     601.89
 18.97     599.91
 19.07     665.56
 19.17     612.00
 19.27     591.33
 19.37     642.87
 19.47     670.00
 19.57     615.27
 19.67     607.13
 19.77     586.00
 19.87     590.61
 19.97     647.00
 20.07     609.00
 20.17     669.38
 20.27     574.00
 20.37     582.00
 20.47     672.97
 20.57     610.97
 20.67     641.00
 20.77     598.00
 20.87     582.00
 20.97     656.98
 21.07     600.00
 21.17     641.44
 21.27     645.71
 21.37     578.00
 21.47     669.81
 21.57     583.44
 21.67     598.00
 21.77     610.00
 21.87     644.00
 21.97     596.99
 22.07     661.52
 22.17     631.50
 22.27     636.00
 22.37     604.00
 22.47     623.00
 22.57     566.00
 22.67     610.00
 22.77     615.00
 22.87     567.00
 22.97     593.74
 23.07     619.00
 23.17     616.00
 23.27     604.00
 23.37     567.00
 23.47     640.00
 23.57     629.00
 23.67     577.00
 23.77     617.80
 23.87     629.00
 23.97     609.00
 24.07     598.00
 24.17     626.00
 24.27     602.34
 24.37     588.00
 24.47     648.00
 24.57     672.63
 24.67     663.33
 24.77     674.00
 24.87     718.00
 24.97     723.00
 25.07     651.99
 25.17     686.00
 25.27     658.00
 25.37     698.00
 25.47     613.00
 25.57     670.00
 25.67     651.00
 25.77     617.00
 25.87     628.17
 25.97     657.59
 26.07     586.00
 26.17     586.75
 26.27     625.00
 26.37     624.00
 26.47     634.00
 26.57     634.00
 26.67     683.73
 26.77     608.00
 26.87     688.00
 26.97     674.00
 27.07     659.08
 27.17     653.00
 27.27     696.00
 27.37     707.61
 27.47     741.00
 27.57     745.46
 27.67     829.80
 27.77     840.00
 27.87    1052.51
 27.97    1349.00
 28.07    2123.90
 28.17    3211.78
 28.27    5003.85
 28.37    6700.00
 28.47    7309.00
 28.57    6477.00
 28.67    4882.00
 28.77    3566.00
 28.87    3129.00
 28.97    3505.00
 29.07    3777.77
 29.17    4118.00
 29.27    3709.39
 29.37    2703.00
 29.47    1924.00
 29.57    1315.00
 29.67    1075.02
 29.77     946.00
 29.87     787.42
 29.97     746.79
 30.07     780.80
 30.17     788.00
 30.27     728.00
 30.37     688.00
 30.47     618.53
 30.57     692.00
 30.67     613.46
 30.77     747.00
 30.87     681.00
 30.97     754.00
 31.07     792.00
 31.17     733.00
 31.27     743.00
 31.37     761.75
 31.47     661.18
 31.57     638.06
 31.67     685.89
 31.77     630.38
 31.87     621.00
 31.97     627.00
 32.07     628.00
 32.17     653.70
 32.27     668.00
 32.37     618.00
 32.47     628.12
 32.57     633.00
 32.67     605.95
 32.77     613.00
 32.87     599.00
 32.97     617.00
 33.07     599.00
 33.17     644.00
 33.27     642.00
 33.37     656.21
 33.47     634.00
 33.57     660.00
 33.67     662.00
 33.77     673.00
 33.87     721.00
 33.97     826.00
 34.07     959.00
 34.17    1143.61
 34.27    1237.00
 34.37    1217.00
 34.47    1129.16
 34.57    1003.00
 34.67     876.00
 34.77     727.00
 34.87     657.07
 34.97     707.00
 35.07     677.00
 35.17     667.00
 35.27     658.00
 35.37     620.00
 35.47     595.00
 35.57     647.40
 35.67     630.00
 35.77     608.00
 35.87     616.00
 35.97     592.70
 36.07     568.85
 36.17     555.95
 36.27     568.58
 36.37     575.00
 36.47     601.00
 36.57     593.73
 36.67     611.96
 36.77     560.71
 36.87     607.60
 36.97     581.00
 37.07     602.29
 37.17     566.00
 37.27     574.00
 37.37     630.94
 37.47     633.00
 37.57     612.00
 37.67     597.00
 37.77     613.24
 37.87     652.00
 37.97     658.00
 38.07     698.00
 38.17     789.00
 38.27     751.82
 38.37     742.00
 38.47     725.00
 38.57     667.00
 38.67     640.00
 38.77     606.00
 38.87     582.00
 38.97     563.00
 39.07     610.34
 39.17     574.00
 39.27     607.00
 39.37     583.53
 39.47     592.00
 39.57     553.52
 39.67     622.68
 39.77     561.93
 39.87     571.00
 39.97     622.00
 40.07     556.00
 40.17     560.78
 40.27     580.00
 40.37     593.00
 40.47     623.38
 40.57     589.00
 40.67     560.95
 40.77     567.00
 40.87     571.00
 40.97     586.00
 41.07     557.00
 41.17     621.54
 41.27     576.00
 41.37     545.00
 41.47     597.00
 41.57     551.00
 41.67     543.56
 41.77     569.00
 41.87     591.00
 41.97     558.00
 42.07     596.00
 42.17     601.12
 42.27     582.00
 42.37     551.14
 42.47     580.00
 42.57     592.00
 42.67     635.00
 42.77     620.37
 42.87     656.00
 42.97     699.00
 43.07     751.08
 43.17     732.38
 43.27     690.95
 43.37     647.00
 43.47     574.00
 43.57     618.00
 43.67     592.31
 43.77     575.36
 43.87     590.00
 43.97     610.00
 44.07     556.05
 44.17     560.00
 44.27     579.00
 44.37     607.00
 44.47     570.04
 44.57     549.33
 44.67     594.00
 44.77     613.07
 44.87     611.00
 44.97     589.00
 45.07     560.48
 45.17     610.00
 45.27     575.63
 45.37     583.00
 45.47     552.68
 45.57     569.99
 45.67     597.00
 45.77     609.00
 45.87     580.00
 45.97     573.06
 46.07     553.00
 46.17     558.00
 46.27     608.00
 46.37     621.00
 46.47     639.00
 46.57     592.00
 46.67     600.00
 46.77     544.97
 46.87     617.00
 46.97     628.19
 47.07     654.00
 47.17     557.00
 47.27     607.84
 47.37     620.13
 47.47     647.00
 47.57     572.00
 47.67     583.00
 47.77     618.00
 47.87     632.00
 47.97     665.00
 48.07     631.32
 48.17     660.00
 48.27     707.08
 48.37     687.00
 48.47     631.05
 48.57     685.00
 48.67     653.68
 48.77     588.00
 48.87     656.26
 48.97     588.00
 49.07     576.00
 49.17     595.14
 49.27     590.35
 49.37     638.35
 49.47     647.00
 49.57     651.00
 49.67     649.12
 49.77     789.00
 49.87     857.00
 49.97     963.00
 50.07    1227.00
 50.17    1642.00
 50.27    2098.00
 50.37    2473.00
 50.47    2873.00
 50.57    2972.00
 50.67    2879.64
 50.77    2596.00
 50.87    2032.35
 50.97    1613.44
 51.07    1307.70
 51.17    1070.10
 51.27     900.00
 51.37     830.70
 51.47     742.00
 51.57     783.00
 51.67     726.63
 51.77     716.00
 51.87     731.98
 51.97     655.00
 52.07     671.00
 52.17     638.26
 52.27     671.00
 52.37     682.50
 52.47     617.01
 52.57     638.49
 52.67     679.00
 52.77     678.00
 52.87     648.00
 52.97     623.20
 53.07     680.01
 53.17     714.17
 53.27     718.80
 53.37     786.00
 53.47     938.00
 53.57     957.00
 53.67    1083.00
 53.77    1189.87
 53.87    1316.08
 53.97    1273.00
 54.07    1219.93
 54.17    1121.00
 54.27    1035.00
 54.37    1029.60
 54.47     821.11
 54.57     810.00
 54.67     768.00
 54.77     751.42
 54.87     686.00
 54.97     639.50
 55.07     674.00
 55.17     686.00
 55.27     648.80
 55.37     665.95
 55.47     656.95
 55.57     610.00
 55.67     676.43
 55.77     668.00
 55.87     714.75
 55.97     659.00
 56.07     649.00
 56.17     750.67
 56.27     703.00
 56.37     762.00
 56.47     819.32
 56.57     901.00
 56.67    1108.20
 56.77    1286.27
 56.87    1575.00
 56.97    1921.81
 57.07    2177.01
 57.17    2548.00
 57.27    2711.00
 57.37    2708.00
 57.47    2563.00
 57.57    2234.00
 57.67    1842.00
 57.77    1548.00
 57.87    1236.03
 57.97    1146.25
 58.07    1007.83
 58.17     814.00
 58.27     835.00
 58.37     729.86
 58.47     790.94
 58.57     866.24
 58.67     903.74
 58.77     876.00
 58.87    1039.45
 58.97    1015.00
 59.07    1128.33
 59.17    1175.43
 59.27    1193.00
 59.37    1220.00
 59.47    1330.00
 59.57    1327.00
 59.67    1289.00
 59.77    1294.81
 59.87    1237.00
 59.97    1247.48
 60.07    1259.00
 60.17    1254.00
 60.27    1334.00
 60.37    1437.67
 60.47    1560.00
 60.57    1640.00
 60.67    1635.00
 60.77    1518.00
 60.87    1487.00
 60.97    1359.72
 61.07    1230.00
 61.17    1035.00
 61.27     993.00
 61.37     932.09
 61.47     832.00
 61.57     754.72
 61.67     807.94
 61.77     822.36
 61.87     838.00
 61.97     943.28
 62.07    1064.67
 62.17    1131.00
 62.27    1301.00
 62.37    1445.00
 62.47    1604.92
 62.57    1636.83
 62.67    1644.10
 62.77    1627.00
 62.87    1518.00
 62.97    1395.00
 63.07    1144.00
 63.17    1120.00
 63.27     941.00
 63.37     876.00
 63.47     755.41
 63.57     794.00
 63.67     668.11
 63.77     675.80
 63.87     674.00
 63.97     752.00
 64.07     674.87
 64.17     680.00
 64.27     746.81
 64.37     790.00
 64.47     822.75
 64.57     904.00
 64.67    1022.00
 64.77    1188.00
 64.87    1217.32
 64.97    1324.77
 65.07    1407.47
 65.17    1525.75
 65.27    1505.00
 65.37    1490.00
 65.47    1367.00
 65.57    1276.00
 65.67    1153.00
 65.77    1060.00
 65.87     972.00
 65.97     854.00
 66.07     816.00
 66.17     772.00
 66.27     676.00
 66.37     726.00
 66.47     678.00
 66.57     700.00
 66.67     674.00
 66.77     655.00
 66.87     641.00
 66.97     639.97
 67.07     637.00
 67.17     666.44
 67.27     746.00
 67.37     722.00
 67.47     713.00
 67.57     803.00
 67.67     835.00
 67.77     905.00
 67.87    1077.58
 67.97    1285.00
 68.07    1377.00
 68.17    1766.89
 68.27    1996.32
 68.37    2180.00
 68.47    2392.00
 68.57    2524.00
 68.67    2630.00
 68.77    2457.00
 68.87    2269.32
 68.97    2036.00
 69.07    1802.85
 69.17    1593.00
 69.27    1383.00
 69.37    1116.50
 69.47    1028.00
 69.57     977.00
 69.67     906.00
 69.77     882.00
 69.87     823.00
 69.97     690.37
 70.07     780.00
 70.17     652.67
 70.27     686.00
 70.37     675.00
 70.47     680.00
 70.57     724.00
 70.67     691.64
 70.77     646.00
 70.87     776.00
 70.97     684.00
 71.07     669.96
 71.17     657.58
 71.27     653.88
 71.37     727.00
 71.47     796.00
 71.57     742.20
 71.67     796.29
 71.77     897.00
 71.87    1019.00
 71.97    1169.00
 72.07    1284.00
 72.17    1432.00
 72.27    1593.00
 72.37    1788.00
 72.47    1813.00
 72.57    1939.00
 72.67    1999.61
 72.77    1973.00
 72.87    1694.00
 72.97    1596.29
 73.07    1469.00
 73.17    1286.00
 73.27    1100.39
 73.37    1006.07
 73.47     904.00
 73.57     810.54
 73.67     738.00
 73.77     747.00
 73.87     742.00
 73.97     678.17
 74.07     707.00
 74.17     665.10
 74.27     690.63
 74.37     678.17
 74.47     654.08
 74.57     658.00
 74.67     643.00
 74.77     701.00
 74.87     692.00
 74.97     675.17
 75.07     695.00
 75.17     671.00
 75.27     710.00
 75.37     720.00
 75.47     617.31
 75.57     615.50
 75.67     707.00
 75.77     689.00
 75.87     668.00
 75.97     653.00
 76.07     666.49
 76.17     690.00
 76.27     674.03
 76.37     728.02
 76.47     774.36
 76.57     752.00
 76.67     839.02
 76.77     802.83
 76.87     898.75
 76.97     948.00
 77.07     983.00
 77.17     990.00
 77.27    1017.11
 77.37     925.59
 77.47     976.07
 77.57     876.04
 77.67     861.03
 77.77     844.00
 77.87     799.32
 77.97     733.60
 78.07     708.00
 78.17     672.60
 78.27     664.00
 78.37     621.76
 78.47     673.00
 78.57     667.00
 78.67     578.56
 78.77     628.61
 78.87     647.00
 78.97     604.00
 79.07     640.00
 79.17     653.53
 79.27     648.00
 79.37     628.00
 79.47     607.00
 79.57     639.12
 79.67     606.78
 79.77     580.00
 79.87     616.00
 79.97     618.00
 80.07     588.00
 80.17     586.22
 80.27     664.02
 80.37     697.35
 80.47     675.00
 80.57     702.21
 80.67     697.00
 80.77     762.00
 80.87     813.00
 80.97     810.19
 81.07     966.00
 81.17    1013.00
 81.27    1097.00
 81.37    1187.00
 81.47    1277.00
 81.57    1290.00
 81.67    1340.00
 81.77    1351.00
 81.87    1234.35
 81.97    1328.00
 82.07    1269.02
 82.17    1233.00
 82.27    1180.00
 82.37    1071.00
 82.47     983.38
 82.57     940.00
 82.67     894.00
 82.77     816.66
 82.87     753.00
 82.97     762.00
 83.07     744.01
 83.17     725.00
 83.27     700.00
 83.37     668.73
 83.47     625.49
 83.57     626.11
 83.67     626.00
 83.77     589.00
 83.87     637.00
 83.97     603.43
 84.07     656.00
 84.17     632.00
 84.27     646.00
 84.37     677.00
 84.47     667.00
 84.57     576.00
 84.67     681.47
 84.77     621.00
 84.87     627.00
 84.97     631.51
 85.07     593.00
 85.17     619.00
 85.27     574.00
 85.37     623.00
 85.47     610.00
 85.57     659.17
 85.67     573.88
 85.77     583.00
 85.87     596.00
 85.97     604.00
 86.07     590.07
 86.17     587.60
 86.27     581.58
 86.37     576.00
 86.47     620.00
 86.57     681.00
 86.67     659.00
 86.77     660.05
 86.87     646.00
 86.97     651.00
 87.07     611.53
 87.17     671.17
 87.27     700.95
 87.37     656.00
 87.47     655.00
 87.57     715.00
 87.67     710.00
 87.77     691.00
 87.87     728.00
 87.97     719.00
 88.07     697.78
 88.17     718.00
 88.27     734.00
 88.37     726.00
 88.47     714.46
 88.57     685.00
 88.67     658.00
 88.77     646.42
 88.87     654.00
 88.97     686.67
 89.07     638.00
 89.17     646.00
 89.27     639.92
 89.37     596.02
 89.47     629.00
 89.57     657.00
 89.67     609.00
 89.77     597.00
 89.87     634.00
 89.97     662.00
 90.07     673.04
 90.17     699.00
 90.27     688.00
 90.37     672.30
 90.47     680.01
 90.57     659.00
 90.67     644.68
 90.77     603.95
 90.87     599.40
 90.97     631.41
 91.07     605.77
 91.17     606.00
 91.27     605.00
 91.37     569.00
 91.47     582.11
 91.57     560.00
 91.67     570.00
 91.77     586.00
 91.87     563.00
 91.97     610.79
 92.07     600.00
 92.17     560.00
 92.27     589.00
 92.37     615.00
 92.47     581.38
 92.57     608.00
 92.67     647.30
 92.77     638.00
 92.87     593.00
 92.97     624.00
 93.07     629.00
 93.17     615.00
 93.27     661.00
 93.37     708.00
 93.47     684.16
 93.57     740.31
 93.67     734.00
 93.77     747.00
 93.87     826.21
 93.97     831.73
 94.07     836.00
 94.17     847.00
 94.27     908.67
 94.37     820.40
 94.47     878.28
 94.57     869.00
 94.67     884.19
 94.77     921.00
 94.87     963.00
 94.97     945.05
 95.07     940.90
 95.17     972.00
 95.27     997.00
 95.37     954.53
 95.47     999.78
 95.57     989.46
 95.67    1031.00
 95.77     979.00
 95.87     976.85
 95.97     945.00
 96.07     935.00
 96.17     936.65
 96.27     826.82
 96.37     845.00
 96.47     896.00
 96.57     835.00
 96.67     786.18
 96.77     811.00
 96.87     832.00
 96.97     790.73
 97.07     833.00
 97.17     911.41
 97.27     981.00
 97.37     997.24
 97.47    1056.00
 97.57    1120.00
 97.67    1156.00
 97.77    1239.00
 97.87    1382.00
 97.97    1331.00
 98.07    1493.00
 98.17    1488.00
 98.27    1487.20
 98.37    1577.00
 98.47    1624.00
 98.57    1553.00
 98.67    1514.00
 98.77    1478.01
 98.87    1389.00
 98.97    1395.00
 99.07    1259.00
 99.17    1221.00
 99.27    1238.17
 99.37    1092.00
 99.47    1006.00
 99.57    1011.00
 99.67    1028.65
 99.77     979.00
 99.87     993.00
 99.97    1044.55
100.07    1077.58
100.17    1078.00
100.27    1149.74
100.37    1251.00
100.47    1204.22
100.57    1380.39
100.67    1405.68
100.77    1481.00
100.87    1632.14
100.97    1650.20
101.07    1832.00
101.17    1984.00
101.27    1868.00
101.37    2025.00
101.47    1952.63
101.57    2114.00
101.67    2078.00
101.77    2193.00
101.87    2055.00
101.97    1983.57
102.07    1984.00
102.17    1989.00
102.27    1937.76
102.37    1792.00
102.47    1817.10
102.57    1645.24
102.67    1601.00
102.77    1523.00
102.87    1425.00
102.97    1458.86
103.07    1428.00
103.17    1347.00
103.27    1300.00
103.37    1238.00
103.47    1313.00
103.57    1277.82
103.67    1174.00
103.77    1156.58
103.87    1128.00
103.97    1124.52
104.07    1051.00
104.17     978.42
104.27    1004.30
104.37     921.24
104.47     883.00
104.57     888.00
104.67     764.00
104.77     834.00
104.87     747.00
104.97     694.00
105.07     688.41
105.17     684.00
105.27     626.38
105.37     694.00
105.47     697.00
105.57     630.00
105.67     644.00
105.77     613.82
105.87     581.00
105.97     663.00
106.07     580.00
106.17     549.07
106.27     555.29
106.37     602.00
106.47     595.00
106.57     605.00
106.67     636.00
106.77     597.60
106.87     651.82
106.97     659.84
107.07     702.00
107.17     686.00
107.27     678.06
107.37     699.00
107.47     759.00
107.57     685.00
107.67     726.00
107.77     749.15
107.87     757.00
107.97     781.60
108.07     777.05
108.17     704.00
108.27     747.00
108.37     729.00
108.47     809.29
108.57     795.80
108.67     734.00
108.77     792.93
108.87     775.00
108.97     743.00
109.07     770.49
109.17     805.24
109.27     744.00
109.37     684.00
109.47     748.00
109.57     782.00
109.67     796.00
109.77     758.29
109.87     725.00
109.97     772.96
110.07     803.00
110.17     806.00
110.27     714.00
110.37     725.00
110.47     706.79
110.57     699.13
110.67     721.00
110.77     732.00
110.87     665.00
110.97     682.00
111.07     717.00
111.17     664.00
111.27     690.00
111.37     643.00
111.47     658.61
111.57     644.12
111.67     626.00
111.77     614.00
111.87     623.62
111.97     599.00
112.07     617.09
112.17     558.50
112.27     560.69
112.37     619.00
112.47     641.00
112.57     573.00
112.67     555.39
112.77     574.00
112.87     638.00
112.97     598.00
113.07     596.87
113.17     638.00
113.27     589.64
113.37     662.36
113.47     626.00
113.57     534.00
113.67     611.00
113.77     581.00
113.87     601.62
113.97     688.74
114.07     612.00
114.17     620.00
114.27     649.08
114.37     644.33
114.47     664.31
114.57     675.00
114.67     744.00
114.77     716.00
114.87     790.89
114.97     758.00
115.07     819.87
115.17     897.91
115.27    1006.21
115.37    1010.00
115.47    1159.86
115.57    1229.43
115.67    1335.00
115.77    1527.00
115.87    1668.27
115.97    1943.00
116.07    2128.16
116.17    2434.00
116.27    2751.57
116.37    3089.00
116.47    3442.00
116.57    3758.22
116.67    4077.00
116.77    4578.71
116.87    4797.00
116.97    5164.00
117.07    5496.00
117.17    6021.35
117.27    6255.00
117.37    6619.22
117.47    6946.40
117.57    7218.00
117.67    7476.00
117.77    7412.00
117.87    7605.00
117.97    7392.00
118.07    7400.97
118.17    6994.27
118.27    6802.97
118.37    6691.00
118.47    6349.65
118.57    5935.00
118.67    5565.27
118.77    5247.00
118.87    4730.13
118.97    4645.00
119.07    4179.00
119.17    3712.12
119.27    3283.88
119.37    3102.00
119.47    2861.00
119.57    2503.26
119.67    2258.33
119.77    2120.55
119.87    1929.00
119.97    1712.00
120.07    1605.00
120.17    1386.00
120.27    1401.00
120.37    1219.52
120.47    1186.00
120.57    1093.00
120.67    1002.41
120.77     896.66
120.87     912.00
120.97     878.81
121.07     847.00
121.17     755.00
121.27     785.00
121.37     809.24
121.47     721.00
121.57     760.00
121.67     692.00
121.77     683.05
121.87     704.00
121.97     670.00
122.07     674.00
122.17     656.00
122.27     737.86
122.37     665.00
122.47     679.00
122.57     666.08
122.67     696.00
122.77     649.63
122.87     724.00
122.97     688.00
123.07     667.33
123.17     711.45
123.27     700.60
123.37     699.00
123.47     725.00
123.57     735.00
123.67     730.06
123.77     753.00
123.87     739.46
123.97     775.87
124.07     783.56
124.17     751.00
124.27     784.00
124.37     774.00
124.47     808.70
124.57     739.00
124.67     764.00
124.77     704.98
124.87     750.00
124.97     795.00
