  9.97     561.00
 10.07     595.00
 10.17     572.00
 10.27     584.41
 10.37     596.82
 10.47     570.00
 10.57     594.83
 10.67     545.00
 10.77     580.00
 10.87     582.00
 10.97     540.36
 11.07     592.00
 11.17     590.00
 11.27     554.35
 11.37     568.53
 11.47     610.00
 11.57     618.00
 11.67     593.00
 11.77     620.00
 11.87     634.95
 11.97     610.00
 12.07     645.00
 12.17     694.00
 12.27     734.00
 12.37     636.00
 12.47     637.00
 12.57     593.00
 12.67     586.00
 12.77     562.00
 12.87     562.00
 12.97     550.00
 13.07     602.46
 13.17     600.00
 13.27     572.00
 13.37     603.48
 13.47     597.00
 13.57     561.00
 13.67     595.21
 13.77     568.81
 13.87     556.00
 13.97     565.39
 14.07     538.00
 14.17     542.00
 14.27     597.16
 14.37     518.00
 14.47     566.00
 14.57     554.00
 14.67     571.00
 14.77     593.00
 14.87     559.00
 14.97     508.00
 15.07     565.17
 15.17     575.00
 15.27     577.96
 15.37     588.80
 15.47     566.00
 15.57     535.00
 15.67     570.00
 15.77     553.00
 15.87     598.86
 15.97     563.16
 16.07     590.71
 16.17     561.00
 16.27     530.17
 16.37     523.76
 16.47     550.00
 16.57     572.95
 16.67     579.00
 16.77     524.90
 16.87     587.00
 16.97     503.00
 17.07     517.61
 17.17     552.00
 17.27     579.90
 17.37     584.00
 17.47     554.35
 17.57     546.00
 17.67     579.96
 17.77     595.00
 17.87     566.16
 17.97     557.00
 18.07     564.00
 18.17     587.97
 18.27     546.63
 18.37     599.86
 18.47     511.00
 18.57     550.00
 18.67     538.77
 18.77     540.87
 18.87     578.72
 18.97     529.24
 19.07     580.00
 19.17     514.48
 19.27     551.00
 19.37     557.00
 19.47     541.21
 19.57     527.90
 19.67     550.00
 19.77     553.85
 19.87     589.16
 19.97     526.00
 20.07     537.00
 20.17     537.93
 20.27     544.00
 20.37     527.74
 20.47     557.00
 20.57     522.00
 20.67     528.00
 20.77     519.71
 20.87     527.98
 20.97     542.55
 21.07     508.00
 21.17     507.55
 21.27     583.00
 21.37     539.00
 21.47     548.00
 21.57     531.00
 21.67     542.00
 21.77     555.06
 21.87     532.00
 21.97     567.16
 22.07     507.00
 22.17     530.96
 22.27     545.00
 22.37     548.00
 22.47     571.00
 22.57     574.96
 22.67     560.00
 22.77     567.00
 22.87     506.00
 22.97     517.46
 23.07     553.00
 23.17     553.18
 23.27     543.00
 23.37     527.50
 23.47     505.35
 23.57     574.07
 23.67     505.99
 23.77     535.00
 23.87     530.00
 23.97     550.00
 24.07     546.00
 24.17     547.00
 24.27     573.00
 24.37     559.96
 24.47     550.00
 24.57     610.03
 24.67     605.00
 24.77     655.00
 24.87     646.00
 24.97     601.24
 25.07     602.50
 25.17     563.00
 25.27     579.00
 25.37     531.31
 25.47     564.22
 25.57     555.00
 25.67     573.00
 25.77     538.00
 25.87     574.00
 25.97     575.00
 26.07     576.00
 26.17     585.00
 26.27     533.00
 26.37     557.00
 26.47     542.07
 26.57     568.00
 26.67     542.00
 26.77     529.00
 26.87     521.00
 26.97     546.02
 27.07     567.00
 27.17     508.26
 27.27     501.77
 27.37     591.00
 27.47     510.00
 27.57     545.00
 27.67     525.84
 27.77     587.00
 27.87     629.52
 27.97     640.00
 28.07     753.00
 28.17     837.10
 28.27     875.00
 28.37     834.00
 28.47     805.00
 28.57     759.85
 28.67     729.00
 28.77     741.99
 28.87     760.00
 28.97     866.84
 29.07     791.89
 29.17     749.93
 29.27     612.00
 29.37     598.07
 29.47     588.11
 29.57     592.37
 29.67     544.00
 29.77     630.00
 29.87     618.00
 29.97     582.00
 30.07     534.40
 30.17     567.56
 30.27     601.00
 30.37     560.00
 30.47     537.00
 30.57     556.07
 30.67     567.00
 30.77     584.00
 30.87     558.46
 30.97     595.07
 31.07     555.60
 31.17     621.87
 31.27     612.00
 31.37     560.00
 31.47     526.00
 31.57     541.00
 31.67     539.41
 31.77     491.59
 31.87     525.00
 31.97     544.00
 32.07     531.60
 32.17     565.00
 32.27     557.25
 32.37     548.00
 32.47     538.00
 32.57     541.00
 32.67     565.50
 32.77     561.42
 32.87     549.00
 32.97     537.00
 33.07     561.00
 33.17     550.39
 33.27     482.00
 33.37     597.00
 33.47     570.00
 33.57     589.00
 33.67     617.00
 33.77     711.00
 33.87     819.78
 33.97     998.00
 34.07    1051.49
 34.17    1056.00
 34.27     907.61
 34.37     786.00
 34.47     651.00
 34.57     606.00
 34.67     552.00
 34.77     553.00
 34.87     564.20
 34.97     522.51
 35.07     544.32
 35.17     517.00
 35.27     517.28
 35.37     545.82
 35.47     502.57
 35.57     551.00
 35.67     534.94
 35.77     480.87
 35.87     534.78
 35.97     535.95
 36.07     526.00
 36.17     516.00
 36.27     555.00
 36.37     528.41
 36.47     502.68
 36.57     479.00
 36.67     529.70
 36.77     525.00
 36.87     511.00
 36.97     515.00
 37.07     497.00
 37.17     510.00
 37.27     520.75
 37.37     519.00
 37.47     512.00
 37.57     499.00
 37.67     512.00
 37.77     503.19
 37.87     507.00
 37.97     544.30
 38.07     544.12
 38.17     510.00
 38.27     493.00
 38.37     529.38
 38.47     497.00
 38.57     475.00
 38.67     502.00
 38.77     473.50
 38.87     529.84
 38.97     464.00
 39.07     474.40
 39.17     495.00
 39.27     500.00
 39.37     495.00
 39.47     579.00
 39.57     516.00
 39.67     490.00
 39.77     458.47
 39.87     478.12
 39.97     500.00
 40.07     498.35
 40.17     526.00
 40.27     487.00
 40.37     500.45
 40.47     484.00
 40.57     479.71
 40.67     503.00
 40.77     437.00
 40.87     490.00
 40.97     515.47
 41.07     491.00
 41.17     482.00
 41.27     509.79
 41.37     520.00
 41.47     516.00
 41.57     505.53
 41.67     528.96
 41.77     499.00
 41.87     494.19
 41.97     481.00
 42.07     540.68
 42.17     513.00
 42.27     521.00
 42.37     543.00
 42.47     575.97
 42.57     606.25
 42.67     611.80
 42.77     563.00
 42.87     603.00
 42.97     547.00
 43.07     566.00
 43.17     507.00
 43.27     509.00
 43.37     494.00
 43.47     523.00
 43.57     484.13
 43.67     516.00
 43.77     478.00
 43.87     513.69
 43.97     517.00
 44.07     531.00
 44.17     482.00
 44.27     470.11
 44.37     511.00
 44.47     454.00
 44.57     537.00
 44.67     524.00
 44.77     511.00
 44.87     523.08
 44.97     528.00
 45.07     507.60
 45.17     531.00
 45.27     542.00
 45.37     496.25
 45.47     504.00
 45.57     498.00
 45.67     509.00
 45.77     504.00
 45.87     492.00
 45.97     510.00
 46.07     525.88
 46.17     506.00
 46.27     515.00
 46.37     529.88
 46.47     468.64
 46.57     468.00
 46.67     538.00
 46.77     498.00
 46.87     478.00
 46.97     531.69
 47.07     507.43
 47.17     495.30
 47.27     482.00
 47.37     499.00
 47.47     515.00
 47.57     517.08
 47.67     593.00
 47.77     552.00
 47.87     568.00
 47.97     601.71
 48.07     559.00
 48.17     528.00
 48.27     522.00
 48.37     585.16
 48.47     541.00
 48.57     489.00
 48.67     522.00
 48.77     556.00
 48.87     525.00
 48.97     554.00
 49.07     538.00
 49.17     561.46
 49.27     612.60
 49.37     605.00
 49.47     609.00
 49.57     709.00
 49.67     762.79
 49.77    1045.70
 49.87    1241.32
 49.97    1712.00
 50.07    2124.00
 50.17    2261.00
 50.27    2431.00
 50.37    2195.00
 50.47    1967.00
 50.57    1600.00
 50.67    1184.66
 50.77     934.94
 50.87     787.00
 50.97     680.59
 51.07     629.00
 51.17     618.00
 51.27     585.43
 51.37     559.00
 51.47     617.16
 51.57     550.00
 51.67     593.67
 51.77     559.43
 51.87     574.95
 51.97     489.12
 52.07     544.00
 52.17     551.00
 52.27     524.00
 52.37     585.00
 52.47     550.00
 52.57     575.29
 52.67     515.27
 52.77     602.00
 52.87     628.00
 52.97     685.00
 53.07     721.71
 53.17     829.47
 53.27     991.00
 53.37    1124.00
 53.47    1217.11
 53.57    1223.30
 53.67    1129.67
 53.77    1049.00
 53.87     901.64
 53.97     841.60
 54.07     718.00
 54.17     638.74
 54.27     622.00
 54.37     593.00
 54.47     561.00
 54.57     540.00
 54.67     569.42
 54.77     616.00
 54.87     514.03
 54.97     576.00
 55.07     547.00
 55.17     562.00
 55.27     556.00
 55.37     569.00
 55.47     543.55
 55.57     565.00
 55.67     550.00
 55.77     554.25
 55.87     595.00
 55.97     623.10
 56.07     702.00
 56.17     751.00
 56.27     886.00
 56.37    1044.00
 56.47    1311.00
 56.57    1620.87
 56.67    1964.00
 56.77    2289.00
 56.87    2480.16
 56.97    2633.10
 57.07    2348.51
 57.17    2124.00
 57.27    1845.00
 57.37    1524.00
 57.47    1148.74
 57.57     976.67
 57.67     887.57
 57.77     729.46
 57.87     739.04
 57.97     643.87
 58.07     635.28
 58.17     721.94
 58.27     754.16
 58.37     767.00
 58.47     884.00
 58.57     950.66
 58.67    1005.00
 58.77    1196.90
 58.87    1220.00
 58.97    1302.00
 59.07    1352.00
 59.17    1377.26
 59.27    1294.82
 59.37    1346.00
 59.47    1250.00
 59.57    1159.00
 59.67    1173.00
 59.77    1219.00
 59.87    1207.89
 59.97    1418.00
 60.07    1399.00
 60.17    1515.00
 60.27    1548.00
 60.37    1435.84
 60.47    1392.85
 60.57    1282.00
 60.67    1183.00
 60.77    1025.78
 60.87     892.00
 60.97     769.00
 61.07     698.00
 61.17     631.00
 61.27     660.00
 61.37     675.00
 61.47     685.00
 61.57     735.98
 61.67     859.17
 61.77     894.00
 61.87    1026.00
 61.97    1233.34
 62.07    1241.00
 62.17    1347.00
 62.27    1428.26
 62.37    1309.00
 62.47    1181.00
 62.57    1085.00
 62.67     971.00
 62.77     804.00
 62.87     702.00
 62.97     708.00
 63.07     639.00
 63.17     621.70
 63.27     622.00
 63.37     608.05
 63.47     577.00
 63.57     584.00
 63.67     581.00
 63.77     568.00
 63.87     593.00
 63.97     670.26
 64.07     667.16
 64.17     735.00
 64.27     783.19
 64.37     845.00
 64.47     947.00
 64.57     946.48
 64.67    1023.00
 64.77     966.84
 64.87     982.00
 64.97     980.00
 65.07     853.29
 65.17     853.00
 65.27     769.00
 65.37     699.00
 65.47     717.70
 65.57     697.65
 65.67     623.00
 65.77     591.00
 65.87     555.00
 65.97     580.72
 66.07     545.00
 66.17     554.00
 66.27     541.00
 66.37     531.00
 66.47     535.00
 66.57     564.78
 66.67     604.00
 66.77     599.00
 66.87     603.00
 66.97     568.00
 67.07     655.00
 67.17     725.00
 67.27     723.00
 67.37     866.38
 67.47    1017.00
 67.57    1154.00
 67.67    1428.00
 67.77    1619.00
 67.87    1937.00
 67.97    2182.50
 68.07    2363.00
 68.17    2444.00
 68.27    2301.00
 68.37    2222.00
 68.47    1867.59
 68.57    1750.00
 68.67    1480.00
 68.77    1198.00
 68.87     991.00
 68.97     864.62
 69.07     719.57
 69.17     671.63
 69.27     660.00
 69.37     614.00
 69.47     607.71
 69.57     553.95
 69.67     585.00
 69.77     522.00
 69.87     577.00
 69.97     561.00
 70.07     580.79
 70.17     595.00
 70.27     614.00
 70.37     614.18
 70.47     575.00
 70.57     593.67
 70.67     629.09
 70.77     585.00
 70.87     601.00
 70.97     625.57
 71.07     719.08
 71.17     697.00
 71.27     761.93
 71.37     907.00
 71.47    1037.00
 71.57    1140.87
 71.67    1327.01
 71.77    1603.58
 71.87    1761.00
 71.97    1813.00
 72.07    1821.00
 72.17    1823.00
 72.27    1713.79
 72.37    1692.00
 72.47    1502.89
 72.57    1333.48
 72.67    1223.69
 72.77    1040.00
 72.87     951.85
 72.97     830.00
 73.07     736.85
 73.17     683.00
 73.27     696.21
 73.37     710.00
 73.47     630.00
 73.57     619.00
 73.67     617.00
 73.77     646.34
 73.87     586.00
 73.97     591.00
 74.07     584.00
 74.17     602.00
 74.27     610.00
 74.37     625.00
 74.47     620.00
 74.57     642.00
 74.67     613.82
 74.77     561.06
 74.87     570.00
 74.97     569.73
 75.07     635.00
 75.17     587.00
 75.27     572.00
 75.37     586.00
 75.47     559.00
 75.57     590.00
 75.67     515.85
 75.77     551.00
 75.87     574.00
 75.97     606.00
 76.07     597.00
 76.17     655.00
 76.27     683.30
 76.37     680.00
 76.47     681.50
 76.57     722.00
 76.67     712.26
 76.77     671.00
 76.87     677.00
 76.97     699.51
 77.07     605.00
 77.17     591.23
 77.27     580.00
 77.37     576.00
 77.47     543.00
 77.57     554.62
 77.67     524.58
 77.77     504.00
 77.87     547.42
 77.97     504.00
 78.07     531.00
 78.17     489.46
 78.27     515.00
 78.37     545.00
 78.47     518.00
 78.57     497.00
 78.67     526.00
 78.77     500.00
 78.87     498.00
 78.97     565.00
 79.07     557.80
 79.17     501.00
 79.27     535.09
 79.37     532.26
 79.47     555.95
 79.57     528.00
 79.67     495.00
 79.77     538.57
 79.87     500.00
 79.97     528.93
 80.07     517.00
 80.17     540.00
 80.27     530.47
 80.37     559.00
 80.47     538.00
 80.57     607.24
 80.67     636.67
 80.77     598.93
 80.87     705.33
 80.97     691.24
 81.07     693.00
 81.17     709.00
 81.27     764.00
 81.37     714.21
 81.47     742.00
 81.57     736.00
 81.67     702.84
 81.77     697.13
 81.87     696.03
 81.97     714.00
 82.07     703.00
 82.17     675.00
 82.27     672.00
 82.37     629.00
 82.47     601.14
 82.57     637.00
 82.67     592.14
 82.77     581.00
 82.87     539.00
 82.97     560.00
 83.07     520.00
 83.17     523.42
 83.27     527.00
 83.37     587.94
 83.47     545.36
 83.57     521.00
 83.67     556.87
 83.77     556.00
 83.87     567.00
 83.97     533.73
 84.07     540.00
 84.17     544.00
 84.27     600.80
 84.37     568.00
 84.47     589.99
 84.57     542.00
 84.67     562.72
 84.77     540.00
 84.87     514.62
 84.97     511.00
 85.07     566.29
 85.17     547.89
 85.27     489.08
 85.37     501.00
 85.47     497.50
 85.57     489.00
 85.67     530.00
 85.77     496.00
 85.87     491.03
 85.97     547.69
 86.07     521.00
 86.17     554.00
 86.27     485.42
 86.37     515.00
 86.47     573.00
 86.57     543.00
 86.67     521.00
 86.77     586.00
 86.87     579.00
 86.97     578.00
 87.07     633.00
 87.17     613.00
 87.27     623.68
 87.37     655.00
 87.47     608.00
 87.57     681.00
 87.67     650.00
 87.77     660.00
 87.87     567.09
 87.97     600.00
 88.07     644.00
 88.17     586.00
 88.27     572.44
 88.37     623.00
 88.47     541.24
 88.57     557.72
 88.67     598.00
 88.77     590.00
 88.87     557.39
 88.97     558.00
 89.07     541.00
 89.17     591.37
 89.27     545.28
 89.37     643.00
 89.47     608.00
 89.57     552.95
 89.67     604.16
 89.77     600.00
 89.87     515.00
 89.97     614.39
 90.07     577.43
 90.17     599.06
 90.27     545.99
 90.37     507.87
 90.47     572.39
 90.57     569.00
 90.67     548.00
 90.77     511.00
 90.87     558.29
 90.97     506.17
 91.07     523.27
 91.17     510.59
 91.27     491.03
 91.37     519.00
 91.47     546.79
 91.57     546.00
 91.67     517.00
 91.77     573.00
 91.87     532.90
 91.97     531.00
 92.07     533.00
 92.17     544.00
 92.27     575.00
 92.37     539.00
 92.47     609.57
 92.57     610.00
 92.67     546.00
 92.77     592.00
 92.87     662.00
 92.97     661.00
 93.07     686.00
 93.17     746.15
 93.27     763.53
 93.37     770.48
 93.47     783.00
 93.57     763.00
 93.67     840.65
 93.77     816.80
 93.87     748.43
 93.97     776.08
 94.07     807.00
 94.17     882.00
 94.27     880.00
 94.37     835.00
 94.47     908.29
 94.57     928.00
 94.67     826.00
 94.77     895.00
 94.87     917.85
 94.97     905.00
 95.07     857.00
 95.17     835.60
 95.27     898.00
 95.37     795.00
 95.47     809.00
 95.57     801.00
 95.67     720.00
 95.77     735.00
 95.87     702.48
 95.97     636.00
 96.07     633.00
 96.17     660.27
 96.27     683.00
 96.37     786.69
 96.47     770.10
 96.57     825.89
 96.67     920.69
 96.77     945.00
 96.87     947.00
 96.97    1089.74
 97.07    1225.50
 97.17    1176.91
 97.27    1338.00
 97.37    1399.22
 97.47    1428.00
 97.57    1409.73
 97.67    1423.44
 97.77    1456.00
 97.87    1325.00
 97.97    1336.00
 98.07    1295.00
 98.17    1249.91
 98.27    1136.00
 98.37    1039.00
 98.47     962.69
 98.57     997.00
 98.67     899.00
 98.77     932.11
 98.87     838.74
 98.97     848.47
 99.07     849.00
 99.17     909.74
 99.27     906.60
 99.37     928.00
 99.47     988.32
 99.57    1084.85
 99.67    1165.00
 99.77    1260.00
 99.87    1337.00
 99.97    1370.37
100.07    1428.00
100.17    1664.00
100.27    1653.00
100.37    1766.91
100.47    1846.00
100.57    2012.48
100.67    2048.00
100.77    1958.09
100.87    2002.00
100.97    2055.00
101.07    1964.00
101.17    1935.00
101.27    1854.00
101.37    1747.00
101.47    1711.00
101.57    1548.45
101.67    1523.00
101.77    1406.00
101.87    1398.00
101.97    1296.00
102.07    1208.00
102.17    1190.57
102.27    1142.00
102.37    1223.40
102.47    1084.00
102.57    1129.42
102.67    1066.00
102.77    1018.00
102.87    1101.06
102.97    1032.00
103.07     916.09
103.17     938.00
103.27     932.00
103.37     813.21
103.47     814.00
103.57     818.00
103.67     726.00
103.77     669.92
103.87     687.00
103.97     697.00
104.07     658.02
104.17     649.05
104.27     603.00
104.37     573.00
104.47     547.00
104.57     559.00
104.67     493.94
104.77     528.69
104.87     554.00
104.97     565.00
105.07     503.00
105.17     597.00
105.27     564.34
105.37     568.00
105.47     554.00
105.57     521.00
105.67     580.00
105.77     573.22
105.87     522.90
105.97     561.00
106.07     568.77
106.17     658.00
106.27     565.00
106.37     595.00
106.47     598.00
106.57     616.78
106.67     581.90
106.77     620.43
106.87     643.00
106.97     640.00
107.07     645.00
107.17     623.00
107.27     701.48
107.37     686.00
107.47     694.00
107.57     670.52
107.67     718.63
107.77     666.71
107.87     701.97
107.97     689.00
108.07     681.00
108.17     645.36
108.27     667.00
108.37     686.00
108.47     700.00
108.57     663.00
108.67     738.00
108.77     734.00
108.87     692.00
108.97     720.00
109.07     693.00
109.17     693.89
109.27     658.00
109.37     640.00
109.47     665.76
109.57     598.17
109.67     615.00
109.77     644.00
109.87     618.00
109.97     599.00
110.07     640.00
110.17     591.58
110.27     533.79
110.37     575.00
110.47     581.00
110.57     565.48
110.67     598.00
110.77     559.00
110.87     532.35
110.97     522.89
111.07     528.66
111.17     574.33
111.27     501.00
111.37     498.28
111.47     545.00
111.57     502.00
111.67     534.00
111.77     564.00
111.87     560.00
111.97     553.00
112.07     549.00
112.17     550.00
112.27     578.60
112.37     560.00
112.47     540.00
112.57     608.64
112.67     556.99
112.77     628.45
112.87     585.00
112.97     610.74
113.07     551.00
113.17     622.00
113.27     608.00
113.37     620.00
113.47     664.00
113.57     637.34
113.67     702.00
113.77     722.00
113.87     738.00
113.97     751.00
114.07     776.00
114.17     810.00
114.27     868.00
114.37     956.00
114.47    1040.30
114.57    1201.00
114.67    1411.00
114.77    1438.00
114.87    1638.00
114.97    1899.00
115.07    2070.00
115.17    2192.69
115.27    2528.08
115.37    2766.00
115.47    3075.87
115.57    3537.00
115.67    3887.00
115.77    4031.00
115.87    4337.00
115.97    4823.00
116.07    5128.90
116.17    5598.86
116.27    6021.56
116.37    6286.03
116.47    6335.30
116.57    6674.00
116.67    6737.50
116.77    6824.00
116.87    6738.00
116.97    6704.00
117.07    6470.00
117.17    6249.00
117.27    6022.00
117.37    5725.00
117.47    5531.60
117.57    4891.00
117.67    4763.00
117.77    4385.91
117.87    4013.00
117.97    3583.00
118.07    3236.88
118.17    3091.00
118.27    2749.00
118.37    2349.20
118.47    2201.00
118.57    1833.00
118.67    1752.00
118.77    1512.00
118.87    1368.83
118.97    1287.00
119.07    1114.00
119.17    1095.95
119.27     929.58
119.37     887.00
119.47     793.22
119.57     770.00
119.67     755.00
119.77     692.54
119.87     650.00
119.97     714.00
120.07     604.00
120.17     611.00
120.27     608.00
120.37     609.00
120.47     604.00
120.57     541.00
120.67     586.00
120.77     573.28
120.87     551.00
120.97     584.00
121.07     578.00
121.17     531.17
121.27     589.00
121.37     597.00
121.47     602.19
121.57     539.59
121.67     600.00
121.77     570.00
121.87     581.92
121.97     559.24
122.07     623.00
122.17     626.58
122.27     600.00
122.37     619.00
122.47     625.00
122.57     593.53
122.67     640.00
122.77     606.00
122.87     636.00
122.97     639.00
123.07     611.83
123.17     657.00
123.27     638.00
123.37     655.00
123.47     648.00
123.57     636.74
123.67     642.35
123.77     589.81
123.87     612.00
123.97     592.00
124.07     592.77
124.17     630.78
124.27     643.00
124.37     569.13
124.47     612.00
124.57     626.72
124.67     615.12
124.77     547.65
124.87     553.00
124.97     598.00
