  9.97     559.00
 10.07     594.42
 10.17     550.03
 10.27     579.00
 10.37     587.00
 10.47     552.00
 10.57     532.07
 10.67     589.00
 10.77     535.50
 10.87     580.00
 10.97     595.89
 11.07     559.00
 11.17     598.79
 11.27     605.78
 11.37     597.00
 11.47     604.27
 11.57     580.05
 11.67     580.67
 11.77     588.59
 11.87     592.53
 11.97     573.53
 12.07     663.00
 12.17     647.74
 12.27     661.00
 12.37     617.00
 12.47     599.00
 12.57     601.00
 12.67     541.00
 12.77     607.23
 12.87     571.74
 12.97     609.43
 13.07     584.45
 13.17     578.00
 13.27     530.00
 13.37     532.06
 13.47     590.90
 13.57     574.00
 13.67     527.00
 13.77     526.00
 13.87     545.09
 13.97     558.00
 14.07     539.00
 14.17     563.34
 14.27     592.00
 14.37     577.26
 14.47     529.84
 14.57     583.00
 14.67     510.00
 14.77     555.00
 14.87     570.00
 14.97     548.00
 15.07     558.00
 15.17     537.86
 15.27     518.50
 15.37     597.70
 15.47     512.00
 15.57     605.63
 15.67     486.00
 15.77     548.00
 15.87     520.95
 15.97     534.00
 16.07     573.59
 16.17     551.00
 16.27     560.62
 16.37     519.00
 16.47     512.00
 16.57     585.00
 16.67     521.00
 16.77     581.00
 16.87     569.74
 16.97     556.00
 17.07     516.00
 17.17     554.00
 17.27     603.40
 17.37     522.00
 17.47     589.89
 17.57     604.32
 17.67     552.20
 17.77     560.00
 17.87     567.26
 17.97     591.96
 18.07     584.33
 18.17     511.00
 18.27     516.67
 18.37     527.00
 18.47     536.34
 18.57     575.16
 18.67     550.77
 18.77     528.00
 18.87     575.00
 18.97     528.02
 19.07     556.00
 19.17     557.00
 19.27     567.00
 19.37     566.00
 19.47     540.31
 19.57     534.00
 19.67     566.00
 19.77     571.00
 19.87     532.00
 19.97     528.39
 20.07     536.00
 20.17     546.00
 20.27     522.00
 20.37     559.00
 20.47     559.00
 20.57     542.00
 20.67     564.00
 20.77     585.28
 20.87     533.00
 20.97     558.00
 21.07     533.00
 21.17     539.00
 21.27     538.00
 21.37     575.67
 21.47     592.00
 21.57     576.00
 21.67     539.00
 21.77     535.00
 21.87     526.00
 21.97     541.00
 22.07     544.00
 22.17     536.00
 22.27     566.22
 22.37     545.00
 22.47     516.24
 22.57     581.00
 22.67     532.00
 22.77     572.94
 22.87     562.31
 22.97     544.00
 23.07     527.38
 23.17     552.00
 23.27     555.98
 23.37     507.46
 23.47     541.29
 23.57     562.00
 23.67     544.00
 23.77     618.00
 23.87     555.00
 23.97     536.00
 24.07     549.12
 24.17     546.20
 24.27     591.05
 24.37     561.00
 24.47     614.00
 24.57     596.00
 24.67     636.00
 24.77     695.00
 24.87     613.00
 24.97     595.00
 25.07     611.14
 25.17     575.00
 25.27     604.95
 25.37     547.39
 25.47     552.33
 25.57     531.00
 25.67     542.00
 25.77     541.47
 25.87     565.73
 25.97     572.92
 26.07     549.88
 26.17     533.00
 26.27     539.00
 26.37     567.00
 26.47     531.00
 26.57     546.00
 26.67     514.99
 26.77     501.93
 26.87     543.70
 26.97     584.21
 27.07     523.71
 27.17     564.70
 27.27     516.13
 27.37     539.00
 27.47     534.00
 27.57     545.00
 27.67     545.00
 27.77     532.00
 27.87     582.42
 27.97     690.00
 28.07     710.01
 28.17     803.00
 28.27     885.60
 28.37     880.84
 28.47     863.00
 28.57     755.00
 28.67     733.00
 28.77     752.00
 28.87     822.00
 28.97     813.00
 29.07     766.00
 29.17     729.00
 29.27     686.00
 29.37     580.00
 29.47     606.00
 29.57     592.00
 29.67     546.00
 29.77     580.00
 29.87     503.42
 29.97     599.00
 30.07     546.00
 30.17     571.65
 30.27     503.09
 30.37     540.00
 30.47     564.00
 30.57     586.00
 30.67     534.22
 30.77     575.89
 30.87     606.00
 30.97     644.00
 31.07     644.00
 31.17     592.34
 31.27     617.00
 31.37     565.00
 31.47     531.63
 31.57     500.86
 31.67     512.00
 31.77     514.49
 31.87     511.00
 31.97     488.00
 32.07     548.00
 32.17     534.00
 32.27     543.00
 32.37     542.00
 32.47     512.81
 32.57     549.00
 32.67     531.00
 32.77     545.00
 32.87     521.00
 32.97     577.00
 33.07     564.00
 33.17     504.46
 33.27     544.00
 33.37     550.30
 33.47     591.51
 33.57     541.11
 33.67     637.00
 33.77     741.00
 33.87     809.00
 33.97     929.29
 34.07    1041.00
 34.17    1033.00
 34.27     957.14
 34.37     860.85
 34.47     750.33
 34.57     591.00
 34.67     566.00
 34.77     547.75
 34.87     554.00
 34.97     489.66
 35.07     484.01
 35.17     521.17
 35.27     527.15
 35.37     480.00
 35.47     519.00
 35.57     572.00
 35.67     476.00
 35.77     460.00
 35.87     548.00
 35.97     493.30
 36.07     507.00
 36.17     533.00
 36.27     444.00
 36.37     520.00
 36.47     531.92
 36.57     523.00
 36.67     503.00
 36.77     524.00
 36.87     517.00
 36.97     503.00
 37.07     535.46
 37.17     540.97
 37.27     506.00
 37.37     522.00
 37.47     545.40
 37.57     517.00
 37.67     520.00
 37.77     512.00
 37.87     528.00
 37.97     521.00
 38.07     505.00
 38.17     496.27
 38.27     518.32
 38.37     493.99
 38.47     507.00
 38.57     523.00
 38.67     542.39
 38.77     482.00
 38.87     473.00
 38.97     511.00
 39.07     546.00
 39.17     540.81
 39.27     442.00
 39.37     502.00
 39.47     505.40
 39.57     507.00
 39.67     486.97
 39.77     518.00
 39.87     506.00
 39.97     463.00
 40.07     465.00
 40.17     495.00
 40.27     461.27
 40.37     482.26
 40.47     477.00
 40.57     479.00
 40.67     494.74
 40.77     454.00
 40.87     488.00
 40.97     476.00
 41.07     448.00
 41.17     523.37
 41.27     470.00
 41.37     500.33
 41.47     461.07
 41.57     506.01
 41.67     527.38
 41.77     519.00
 41.87     457.43
 41.97     464.00
 42.07     493.68
 42.17     496.50
 42.27     486.25
 42.37     522.00
 42.47     579.50
 42.57     522.00
 42.67     596.70
 42.77     622.00
 42.87     574.00
 42.97     562.00
 43.07     568.00
 43.17     508.00
 43.27     563.29
 43.37     476.00
 43.47     487.00
 43.57     516.00
 43.67     505.00
 43.77     492.00
 43.87     449.00
 43.97     496.00
 44.07     523.00
 44.17     493.00
 44.27     524.00
 44.37     483.83
 44.47     504.00
 44.57     499.00
 44.67     530.61
 44.77     492.48
 44.87     501.00
 44.97     527.00
 45.07     512.20
 45.17     495.00
 45.27     514.06
 45.37     521.70
 45.47     468.00
 45.57     521.00
 45.67     487.00
 45.77     460.24
 45.87     481.42
 45.97     520.00
 46.07     502.00
 46.17     457.34
 46.27     489.25
 46.37     477.00
 46.47     520.00
 46.57     550.00
 46.67     470.00
 46.77     528.00
 46.87     526.00
 46.97     458.12
 47.07     514.80
 47.17     527.00
 47.27     526.00
 47.37     503.00
 47.47     507.37
 47.57     507.00
 47.67     551.00
 47.77     536.00
 47.87     592.00
 47.97     585.00
 48.07     568.62
 48.17     535.00
 48.27     565.00
 48.37     531.30
 48.47     498.64
 48.57     579.00
 48.67     497.73
 48.77     518.00
 48.87     550.43
 48.97     491.00
 49.07     526.00
 49.17     557.55
 49.27     573.68
 49.37     597.00
 49.47     631.00
 49.57     624.00
 49.67     781.38
 49.77     961.93
 49.87    1270.00
 49.97    1505.90
 50.07    1907.82
 50.17    2270.00
 50.27    2374.00
 50.37    2360.00
 50.47    2068.00
 50.57    1606.08
 50.67    1300.93
 50.77     948.00
 50.87     838.74
 50.97     754.76
 51.07     683.00
 51.17     602.00
 51.27     644.00
 51.37     582.51
 51.47     554.00
 51.57     557.57
 51.67     552.00
 51.77     578.72
 51.87     551.98
 51.97     556.00
 52.07     532.00
 52.17     542.00
 52.27     514.74
 52.37     563.84
 52.47     508.77
 52.57     548.00
 52.67     560.00
 52.77     590.00
 52.87     623.00
 52.97     622.00
 53.07     751.00
 53.17     814.00
 53.27     911.61
 53.37    1051.07
 53.47    1167.94
 53.57    1211.22
 53.67    1084.00
 53.77    1134.72
 53.87     986.00
 53.97     847.00
 54.07     770.00
 54.17     686.00
 54.27     672.64
 54.37     630.00
 54.47     533.00
 54.57     602.60
 54.67     546.59
 54.77     503.20
 54.87     592.00
 54.97     530.00
 55.07     513.67
 55.17     550.00
 55.27     580.00
 55.37     532.80
 55.47     606.00
 55.57     552.00
 55.67     576.00
 55.77     558.00
 55.87     596.09
 55.97     602.00
 56.07     612.00
 56.17     732.00
 56.27     779.00
 56.37    1002.00
 56.47    1212.31
 56.57    1524.44
 56.67    1804.00
 56.77    2248.00
 56.87    2396.00
 56.97    2504.00
 57.07    2424.00
 57.17    2256.85
 57.27    1903.00
 57.37    1636.00
 57.47    1240.00
 57.57    1011.71
 57.67     901.00
 57.77     867.00
 57.87     738.00
 57.97     706.84
 58.07     682.00
 58.17     697.00
 58.27     729.28
 58.37     739.00
 58.47     871.08
 58.57     948.07
 58.67     968.68
 58.77    1023.28
 58.87    1162.73
 58.97    1154.00
 59.07    1287.00
 59.17    1302.00
 59.27    1264.98
 59.37    1255.13
 59.47    1333.00
 59.57    1238.00
 59.67    1238.00
 59.77    1173.00
 59.87    1187.00
 59.97    1280.00
 60.07    1323.00
 60.17    1475.00
 60.27    1466.71
 60.37    1505.00
 60.47    1395.00
 60.57    1413.00
 60.67    1251.15
 60.77    1095.22
 60.87     922.00
 60.97     804.00
 61.07     728.00
 61.17     732.00
 61.27     665.00
 61.37     638.75
 61.47     620.33
 61.57     668.93
 61.67     790.00
 61.77     832.00
 61.87    1001.67
 61.97    1086.00
 62.07    1242.00
 62.17    1350.00
 62.27    1308.00
 62.37    1334.00
 62.47    1279.94
 62.57    1119.00
 62.67     999.00
 62.77     866.00
 62.87     767.00
 62.97     634.00
 63.07     660.60
 63.17     675.00
 63.27     612.24
 63.37     576.00
 63.47     550.51
 63.57     556.00
 63.67     552.00
 63.77     559.00
 63.87     589.00
 63.97     626.00
 64.07     686.06
 64.17     747.00
 64.27     716.50
 64.37     863.00
 64.47     928.09
 64.57     966.55
 64.67    1012.00
 64.77    1032.00
 64.87    1052.00
 64.97     883.00
 65.07     930.00
 65.17     846.00
 65.27     775.67
 65.37     775.00
 65.47     745.99
 65.57     633.00
 65.67     594.00
 65.77     657.77
 65.87     640.00
 65.97     602.00
 66.07     607.00
 66.17     595.71
 66.27     609.48
 66.37     551.00
 66.47     549.00
 66.57     551.43
 66.67     559.00
 66.77     585.74
 66.87     583.39
 66.97     579.00
 67.07     690.00
 67.17     615.00
 67.27     743.00
 67.37     824.00
 67.47     940.30
 67.57    1092.00
 67.67    1318.15
 67.77    1594.00
 67.87    1813.00
 67.97    2112.93
 68.07    2303.86
 68.17    2368.77
 68.27    2351.00
 68.37    2186.65
 68.47    2019.83
 68.57    1796.00
 68.67    1559.00
 68.77    1291.00
 68.87    1102.00
 68.97     957.00
 69.07     824.00
 69.17     690.23
 69.27     660.34
 69.37     664.75
 69.47     574.79
 69.57     580.00
 69.67     571.00
 69.77     580.00
 69.87     544.00
 69.97     598.14
 70.07     568.00
 70.17     528.00
 70.27     569.00
 70.37     581.00
 70.47     562.00
 70.57     532.79
 70.67     585.00
 70.77     588.51
 70.87     650.86
 70.97     634.94
 71.07     675.74
 71.17     692.00
 71.27     820.10
 71.37     860.00
 71.47     933.89
 71.57    1138.00
 71.67    1319.33
 71.77    1439.41
 71.87    1548.44
 71.97    1782.00
 72.07    1839.00
 72.17    1850.00
 72.27    1853.40
 72.37    1696.03
 72.47    1543.00
 72.57    1357.24
 72.67    1309.00
 72.77    1106.83
 72.87     957.00
 72.97     837.00
 73.07     823.90
 73.17     780.00
 73.27     693.38
 73.37     668.85
 73.47     657.00
 73.57     639.00
 73.67     594.00
 73.77     614.00
 73.87     595.17
 73.97     554.00
 74.07     539.82
 74.17     609.00
 74.27     589.04
 74.37     533.17
 74.47     571.00
 74.57     640.00
 74.67     586.74
 74.77     564.88
 74.87     669.00
 74.97     568.48
 75.07     638.00
 75.17     594.28
 75.27     585.00
 75.37     585.00
 75.47     566.40
 75.57     532.00
 75.67     520.38
 75.77     564.00
 75.87     577.00
 75.97     540.00
 76.07     608.00
 76.17     666.10
 76.27     659.00
 76.37     654.00
 76.47     664.00
 76.57     725.00
 76.67     702.00
 76.77     685.00
 76.87     708.91
 76.97     687.00
 77.07     611.33
 77.17     590.00
 77.27     609.00
 77.37     538.37
 77.47     555.00
 77.57     510.00
 77.67     556.00
 77.77     525.63
 77.87     502.36
 77.97     517.00
 78.07     490.00
 78.17     532.00
 78.27     558.85
 78.37     469.00
 78.47     524.00
 78.57     530.00
 78.67     504.10
 78.77     492.90
 78.87     533.10
 78.97     484.00
 79.07     527.09
 79.17     524.00
 79.27     513.15
 79.37     499.00
 79.47     501.00
 79.57     545.00
 79.67     539.09
 79.77     497.00
 79.87     543.74
 79.97     517.00
 80.07     547.00
 80.17     540.00
 80.27     548.00
 80.37     557.00
 80.47     572.00
 80.57     585.00
 80.67     590.00
 80.77     657.12
 80.87     622.00
 80.97     646.00
 81.07     639.00
 81.17     698.00
 81.27     694.00
 81.37     725.00
 81.47     768.26
 81.57     705.47
 81.67     725.96
 81.77     777.48
 81.87     751.00
 81.97     729.00
 82.07     699.00
 82.17     680.12
 82.27     697.42
 82.37     615.00
 82.47     603.55
 82.57     601.06
 82.67     606.31
 82.77     593.00
 82.87     521.00
 82.97     589.00
 83.07     575.50
 83.17     584.08
 83.27     563.93
 83.37     538.00
 83.47     533.00
 83.57     541.00
 83.67     514.21
 83.77     551.07
 83.87     577.00
 83.97     546.00
 84.07     568.65
 84.17     579.00
 84.27     546.00
 84.37     544.25
 84.47     568.00
 84.57     533.00
 84.67     530.00
 84.77     551.00
 84.87     541.00
 84.97     520.00
 85.07     481.00
 85.17     549.00
 85.27     550.00
 85.37     488.00
 85.47     532.87
 85.57     511.00
 85.67     549.00
 85.77     530.00
 85.87     471.99
 85.97     485.12
 86.07     531.00
 86.17     551.69
 86.27     525.61
 86.37     553.21
 86.47     520.00
 86.57     540.00
 86.67     526.22
 86.77     526.45
 86.87     526.00
 86.97     589.00
 87.07     618.41
 87.17     571.83
 87.27     656.00
 87.37     599.21
 87.47     601.00
 87.57     587.29
 87.67     605.02
 87.77     626.00
 87.87     620.00
 87.97     614.67
 88.07     575.75
 88.17     626.00
 88.27     565.00
 88.37     635.00
 88.47     593.00
 88.57     596.00
 88.67     556.00
 88.77     515.00
 88.87     592.67
 88.97     571.00
 89.07     534.33
 89.17     624.00
 89.27     614.67
 89.37     575.00
 89.47     599.00
 89.57     571.00
 89.67     617.83
 89.77     625.31
 89.87     565.00
 89.97     573.77
 90.07     546.00
 90.17     524.81
 90.27     571.00
 90.37     536.00
 90.47     535.00
 90.57     571.40
 90.67     482.17
 90.77     555.78
 90.87     508.00
 90.97     505.00
 91.07     472.27
 91.17     493.63
 91.27     537.00
 91.37     519.00
 91.47     498.00
 91.57     528.00
 91.67     540.70
 91.77     556.56
 91.87     520.95
 91.97     543.00
 92.07     509.00
 92.17     549.00
 92.27     559.00
 92.37     595.00
 92.47     577.00
 92.57     583.00
 92.67     630.00
 92.77     674.00
 92.87     696.00
 92.97     650.00
 93.07     677.00
 93.17     668.00
 93.27     775.00
 93.37     781.00
 93.47     760.00
 93.57     748.21
 93.67     778.00
 93.77     800.00
 93.87     800.60
 93.97     822.00
 94.07     831.00
 94.17     798.60
 94.27     813.00
 94.37     815.11
 94.47     759.00
 94.57     831.00
 94.67     854.00
 94.77     911.56
 94.87     924.88
 94.97     906.86
 95.07     958.00
 95.17     859.59
 95.27     803.98
 95.37     822.72
 95.47     835.00
 95.57     780.22
 95.67     739.00
 95.77     722.00
 95.87     701.00
 95.97     760.00
 96.07     660.00
 96.17     674.00
 96.27     675.11
 96.37     741.12
 96.47     784.60
 96.57     758.00
 96.67     785.33
 96.77     884.70
 96.87    1005.85
 96.97    1069.00
 97.07    1178.00
 97.17    1130.00
 97.27    1243.00
 97.37    1336.00
 97.47    1325.00
 97.57    1341.12
 97.67    1451.00
 97.77    1429.00
 97.87    1407.00
 97.97    1346.00
 98.07    1368.05
 98.17    1267.00
 98.27    1253.00
 98.37    1213.00
 98.47    1066.00
 98.57    1024.00
 98.67    1000.00
 98.77     884.00
 98.87     846.48
 98.97     910.06
 99.07     831.00
 99.17     820.00
 99.27     877.00
 99.37     895.00
 99.47     995.00
 99.57     971.06
 99.67    1083.00
 99.77    1079.00
 99.87    1222.00
 99.97    1321.00
100.07    1398.00
100.17    1508.00
100.27    1670.00
100.37    1762.00
100.47    1850.00
100.57    1868.00
100.67    1950.00
100.77    1949.00
100.87    1973.00
100.97    2088.00
101.07    2010.00
101.17    1893.00
101.27    1938.00
101.37    1745.40
101.47    1711.00
101.57    1600.00
101.67    1508.00
101.77    1442.80
101.87    1404.00
101.97    1409.73
102.07    1253.20
102.17    1246.00
102.27    1193.00
102.37    1144.00
102.47    1210.81
102.57    1085.11
102.67    1207.00
102.77    1120.00
102.87    1063.04
102.97    1002.00
103.07     998.00
103.17    1041.00
103.27     881.28
103.37     849.00
103.47     813.67
103.57     857.04
103.67     773.00
103.77     773.00
103.87     681.00
103.97     677.00
104.07     658.00
104.17     596.00
104.27     611.92
104.37     591.00
104.47     580.62
104.57     593.00
104.67     559.10
104.77     528.36
104.87     570.00
104.97     514.16
105.07     539.54
105.17     555.00
105.27     541.00
105.37     530.00
105.47     515.00
105.57     572.00
105.67     528.00
105.77     553.46
105.87     569.00
105.97     504.53
106.07     539.00
106.17     586.37
106.27     542.83
106.37     577.00
106.47     623.00
106.57     634.66
106.67     563.00
106.77     615.00
106.87     651.00
106.97     608.45
107.07     639.00
107.17     687.28
107.27     635.00
107.37     714.97
107.47     657.25
107.57     633.00
107.67     655.00
107.77     692.00
107.87     675.96
107.97     715.00
108.07     710.00
108.17     719.41
108.27     681.00
108.37     668.00
108.47     680.00
108.57     722.00
108.67     693.00
108.77     628.00
108.87     663.00
108.97     696.16
109.07     683.00
109.17     657.26
109.27     696.00
109.37     620.00
109.47     643.88
109.57     650.00
109.67     695.00
109.77     632.00
109.87     618.00
109.97     650.26
110.07     573.47
110.17     598.00
110.27     575.07
110.37     560.19
110.47     581.20
110.57     635.00
110.67     566.00
110.77     537.99
110.87     566.00
110.97     566.00
111.07     544.00
111.17     514.00
111.27     553.07
111.37     539.00
111.47     558.66
111.57     554.00
111.67     503.00
111.77     537.00
111.87     490.00
111.97     536.00
112.07     558.00
112.17     526.84
112.27     573.00
112.37     593.71
112.47     581.00
112.57     543.00
112.67     595.68
112.77     572.00
112.87     552.00
112.97     552.00
113.07     571.00
113.17     573.00
113.27     612.00
113.37     592.62
113.47     583.00
113.57     687.17
113.67     645.00
113.77     699.00
113.87     701.30
113.97     793.68
114.07     751.17
114.17     781.00
114.27     921.00
114.37     930.00
114.47    1036.00
114.57    1110.96
114.67    1241.99
114.77    1245.85
114.87    1371.43
114.97    1634.00
115.07    1749.68
115.17    2093.29
115.27    2227.64
115.37    2571.00
115.47    2729.00
115.57    3088.57
115.67    3460.00
115.77    3873.00
115.87    4251.26
115.97    4543.00
116.07    4909.00
116.17    5260.00
116.27    5559.00
116.37    5945.00
116.47    6299.00
116.57    6620.00
116.67    6805.97
116.77    6801.00
116.87    6952.00
116.97    6660.16
117.07    6648.00
117.17    6617.23
117.27    6333.00
117.37    6034.71
117.47    5615.00
117.57    5285.00
117.67    5022.00
117.77    4680.06
117.87    4422.03
117.97    3954.24
118.07    3750.00
118.17    3400.00
118.27    3002.79
118.37    2780.61
118.47    2385.76
118.57    2234.10
118.67    1921.27
118.77    1741.00
118.87    1480.40
118.97    1452.96
119.07    1234.00
119.17    1186.87
119.27    1013.00
119.37    1018.88
119.47     939.55
119.57     846.00
119.67     827.37
119.77     776.00
119.87     722.00
119.97     667.00
120.07     678.15
120.17     622.29
120.27     691.00
120.37     633.69
120.47     651.89
120.57     619.00
120.67     608.00
120.77     572.00
120.87     533.00
120.97     585.00
121.07     561.55
121.17     572.00
121.27     587.00
121.37     576.00
121.47     606.98
121.57     575.00
121.67     586.00
121.77     602.00
121.87     616.74
121.97     617.34
122.07     623.00
122.17     602.00
122.27     568.00
122.37     611.46
122.47     600.00
122.57     584.57
122.67     614.22
122.77     602.00
122.87     662.81
122.97     611.00
123.07     627.00
123.17     657.49
123.27     633.00
123.37     669.00
123.47     635.00
123.57     585.00
123.67     636.00
123.77     621.00
123.87     639.00
123.97     647.00
124.07     594.02
124.17     614.00
124.27     644.66
124.37     624.00
124.47     558.96
124.57     671.00
124.67     602.00
124.77     567.84
124.87     564.00
124.97     550.00
