  9.97     606.00
 10.07     508.81
 10.17     530.03
 10.27     605.00
 10.37     585.41
 10.47     595.00
 10.57     526.26
 10.67     588.00
 10.77     523.64
 10.87     597.00
 10.97     563.93
 11.07     520.60
 11.17     631.00
 11.27     551.00
 11.37     573.00
 11.47     591.00
 11.57     644.00
 11.67     571.00
 11.77     617.00
 11.87     596.00
 11.97     640.52
 12.07     691.01
 12.17     656.00
 12.27     653.00
 12.37     679.00
 12.47     620.60
 12.57     650.00
 12.67     580.52
 12.77     539.00
 12.87     597.00
 12.97     585.00
 13.07     535.52
 13.17     584.00
 13.27     558.90
 13.37     529.23
 13.47     598.48
 13.57     563.00
 13.67     565.00
 13.77     520.76
 13.87     547.92
 13.97     569.00
 14.07     530.16
 14.17     585.63
 14.27     545.00
 14.37     587.00
 14.47     565.00
 14.57     576.00
 14.67     545.00
 14.77     548.00
 14.87     533.00
 14.97     529.00
 15.07     580.64
 15.17     541.00
 15.27     544.00
 15.37     570.31
 15.47     557.00
 15.57     599.00
 15.67     530.33
 15.77     583.89
 15.87     525.00
 15.97     533.00
 16.07     594.09
 16.17     546.00
 16.27     545.21
 16.37     589.95
 16.47     584.00
 16.57     577.00
 16.67     577.00
 16.77     568.00
 16.87     542.00
 16.97     559.00
 17.07     530.62
 17.17     570.55
 17.27     523.48
 17.37     541.00
 17.47     520.00
 17.57     544.00
 17.67     597.00
 17.77     529.00
 17.87     532.00
 17.97     534.00
 18.07     542.00
 18.17     562.00
 18.27     531.00
 18.37     520.00
 18.47     518.00
 18.57     533.01
 18.67     548.00
 18.77     551.00
 18.87     568.23
 18.97     552.55
 19.07     545.00
 19.17     568.00
 19.27     539.91
 19.37     571.00
 19.47     530.00
 19.57     596.00
 19.67     517.00
 19.77     550.61
 19.87     536.00
 19.97     551.00
 20.07     570.00
 20.17     564.00
 20.27     538.00
 20.37     525.02
 20.47     537.00
 20.57     522.00
 20.67     523.42
 20.77     518.96
 20.87     527.00
 20.97     515.00
 21.07     537.23
 21.17     546.79
 21.27     590.00
 21.37     539.90
 21.47     584.00
 21.57     556.69
 21.67     534.00
 21.77     560.00
 21.87     554.42
 21.97     496.00
 22.07     532.00
 22.17     561.64
 22.27     529.00
 22.37     523.77
 22.47     533.00
 22.57     578.00
 22.67     522.19
 22.77     521.26
 22.87     534.00
 22.97     526.32
 23.07     545.00
 23.17     615.00
 23.27     605.74
 23.37     570.00
 23.47     567.00
 23.57     545.00
 23.67     592.69
 23.77     580.00
 23.87     594.00
 23.97     557.00
 24.07     541.00
 24.17     567.00
 24.27     589.00
 24.37     583.00
 24.47     584.00
 24.57     572.00
 24.67     593.47
 24.77     622.96
 24.87     629.64
 24.97     651.00
 25.07     613.99
 25.17     601.36
 25.27     603.05
 25.37     597.00
 25.47     555.00
 25.57     564.13
 25.67     611.00
 25.77     548.17
 25.87     545.68
 25.97     540.41
 26.07     514.79
 26.17     532.58
 26.27     576.83
 26.37     559.15
 26.47     621.00
 26.57     595.00
 26.67     575.78
 26.77     540.15
 26.87     576.00
 26.97     544.18
 27.07     609.00
 27.17     520.12
 27.27     601.00
 27.37     605.00
 27.47     591.00
 27.57     611.00
 27.67     528.36
 27.77     600.00
 27.87     636.00
 27.97     654.00
 28.07     732.05
 28.17     814.00
 28.27     927.00
 28.37    1008.95
 28.47     838.47
 28.57     815.00
 28.67     788.65
 28.77     704.00
 28.87     787.00
 28.97     874.52
 29.07     803.00
 29.17     790.01
 29.27     699.00
 29.37     655.00
 29.47     658.40
 29.57     572.55
 29.67     618.49
 29.77     606.00
 29.87     587.00
 29.97     573.00
 30.07     640.00
 30.17     590.00
 30.27     565.00
 30.37     542.68
 30.47     585.00
 30.57     626.00
 30.67     621.76
 30.77     608.00
 30.87     569.25
 30.97     630.00
 31.07     610.00
 31.17     634.54
 31.27     574.00
 31.37     550.48
 31.47     565.00
 31.57     555.00
 31.67     582.78
 31.77     537.00
 31.87     597.00
 31.97     540.00
 32.07     557.26
 32.17     576.98
 32.27     501.51
 32.37     556.00
 32.47     552.00
 32.57     545.00
 32.67     593.00
 32.77     509.39
 32.87     499.82
 32.97     578.08
 33.07     564.00
 33.17     563.84
 33.27     575.00
 33.37     563.07
 33.47     526.30
 33.57     584.93
 33.67     609.00
 33.77     677.38
 33.87     770.00
 33.97     905.00
 34.07    1020.00
 34.17    1023.00
 34.27    1029.00
 34.37     824.07
 34.47     816.00
 34.57     588.00
 34.67     626.15
 34.77     612.00
 34.87     592.00
 34.97     587.00
 35.07     512.92
 35.17     511.00
 35.27     555.72
 35.37     490.00
 35.47     549.00
 35.57     504.00
 35.67     537.98
 35.77     455.00
 35.87     539.43
 35.97     522.00
 36.07     463.00
 36.17     542.44
 36.27     507.00
 36.37     489.00
 36.47     491.00
 36.57     508.00
 36.67     533.00
 36.77     540.04
 36.87     530.95
 36.97     562.00
 37.07     500.33
 37.17     469.00
 37.27     505.00
 37.37     542.00
 37.47     533.00
 37.57     518.00
 37.67     532.00
 37.77     515.00
 37.87     497.00
 37.97     516.00
 38.07     512.00
 38.17     471.27
 38.27     484.00
 38.37     504.00
 38.47     487.00
 38.57     522.46
 38.67     523.00
 38.77     509.00
 38.87     483.00
 38.97     487.00
 39.07     491.00
 39.17     476.00
 39.27     524.45
 39.37     522.00
 39.47     520.00
 39.57     507.00
 39.67     512.00
 39.77     504.00
 39.87     505.00
 39.97     482.00
 40.07     516.00
 40.17     467.00
 40.27     464.00
 40.37     493.00
 40.47     477.00
 40.57     497.64
 40.67     501.00
 40.77     452.53
 40.87     519.51
 40.97     541.00
 41.07     509.00
 41.17     464.00
 41.27     515.03
 41.37     502.00
 41.47     472.00
 41.57     477.00
 41.67     472.00
 41.77     469.00
 41.87     539.68
 41.97     483.00
 42.07     539.66
 42.17     490.65
 42.27     519.00
 42.37     533.75
 42.47     488.00
 42.57     536.00
 42.67     570.00
 42.77     602.00
 42.87     618.70
 42.97     577.81
 43.07     620.23
 43.17     528.00
 43.27     529.00
 43.37     498.00
 43.47     473.00
 43.57     538.20
 43.67     521.00
 43.77     492.00
 43.87     467.00
 43.97     501.19
 44.07     537.77
 44.17     476.57
 44.27     505.00
 44.37     512.00
 44.47     507.00
 44.57     464.00
 44.67     477.48
 44.77     495.82
 44.87     485.00
 44.97     528.00
 45.07     510.00
 45.17     496.00
 45.27     497.00
 45.37     479.00
 45.47     475.00
 45.57     510.24
 45.67     483.33
 45.77     465.00
 45.87     546.00
 45.97     503.00
 46.07     468.00
 46.17     531.93
 46.27     531.77
 46.37     453.00
 46.47     486.00
 46.57     462.00
 46.67     466.00
 46.77     452.91
 46.87     511.19
 46.97     503.00
 47.07     516.01
 47.17     507.00
 47.27     503.43
 47.37     490.00
 47.47     557.00
 47.57     546.00
 47.67     524.00
 47.77     569.26
 47.87     541.18
 47.97     552.56
 48.07     599.00
 48.17     622.18
 48.27     573.42
 48.37     526.29
 48.47     541.30
 48.57     555.00
 48.67     531.00
 48.77     534.00
 48.87     548.00
 48.97     519.58
 49.07     528.00
 49.17     574.82
 49.27     520.96
 49.37     575.00
 49.47     559.76
 49.57     696.00
 49.67     685.00
 49.77     837.00
 49.87    1036.00
 49.97    1277.78
 50.07    1661.63
 50.17    2032.82
 50.27    2261.00
 50.37    2399.00
 50.47    2161.00
 50.57    1937.00
 50.67    1587.86
 50.77    1204.22
 50.87     935.00
 50.97     745.00
 51.07     717.32
 51.17     633.00
 51.27     634.41
 51.37     601.00
 51.47     568.00
 51.57     638.00
 51.67     595.00
 51.77     552.46
 51.87     549.00
 51.97     557.00
 52.07     543.00
 52.17     582.00
 52.27     550.51
 52.37     555.00
 52.47     566.00
 52.57     521.79
 52.67     585.68
 52.77     570.00
 52.87     628.29
 52.97     636.00
 53.07     680.26
 53.17     715.51
 53.27     788.00
 53.37     912.00
 53.47    1075.00
 53.57    1127.00
 53.67    1124.00
 53.77    1124.00
 53.87    1101.00
 53.97     974.00
 54.07     938.00
 54.17     743.00
 54.27     754.14
 54.37     589.00
 54.47     590.00
 54.57     595.00
 54.67     589.00
 54.77     572.00
 54.87     524.30
 54.97     593.00
 55.07     566.00
 55.17     522.27
 55.27     515.18
 55.37     574.00
 55.47     524.52
 55.57     575.00
 55.67     578.00
 55.77     606.00
 55.87     606.00
 55.97     668.03
 56.07     639.00
 56.17     678.00
 56.27     735.00
 56.37     859.88
 56.47    1028.00
 56.57    1172.00
 56.67    1669.21
 56.77    1985.00
 56.87    2208.00
 56.97    2484.00
 57.07    2500.00
 57.17    2352.70
 57.27    2072.00
 57.37    1912.00
 57.47    1567.00
 57.57    1240.00
 57.67    1056.45
 57.77     881.00
 57.87     786.00
 57.97     772.00
 58.07     739.00
 58.17     688.00
 58.27     674.00
 58.37     768.90
 58.47     807.00
 58.57     843.98
 58.67     881.64
 58.77     993.00
 58.87    1092.96
 58.97    1128.60
 59.07    1229.00
 59.17    1271.31
 59.27    1301.40
 59.37    1264.00
 59.47    1193.44
 59.57    1160.57
 59.67    1227.00
 59.77    1186.00
 59.87    1180.00
 59.97    1220.00
 60.07    1343.00
 60.17    1393.00
 60.27    1536.00
 60.37    1562.38
 60.47    1529.00
 60.57    1475.00
 60.67    1388.00
 60.77    1225.00
 60.87    1076.00
 60.97     965.66
 61.07     816.00
 61.17     772.00
 61.27     697.00
 61.37     632.00
 61.47     638.28
 61.57     671.97
 61.67     815.00
 61.77     805.98
 61.87     930.00
 61.97     951.00
 62.07    1143.16
 62.17    1202.00
 62.27    1293.00
 62.37    1293.00
 62.47    1264.00
 62.57    1243.00
 62.67    1080.00
 62.77    1028.00
 62.87     879.46
 62.97     737.00
 63.07     666.10
 63.17     635.00
 63.27     627.00
 63.37     633.00
 63.47     617.80
 63.57     602.44
 63.67     574.00
 63.77     554.00
 63.87     621.00
 63.97     614.00
 64.07     715.00
 64.17     621.00
 64.27     725.00
 64.37     727.00
 64.47     794.63
 64.57     941.00
 64.67     973.24
 64.77     985.00
 64.87    1046.34
 64.97    1011.00
 65.07     940.55
 65.17     926.94
 65.27     861.00
 65.37     803.00
 65.47     698.00
 65.57     675.02
 65.67     688.00
 65.77     628.00
 65.87     596.00
 65.97     590.00
 66.07     594.83
 66.17     564.00
 66.27     525.17
 66.37     593.03
 66.47     556.54
 66.57     570.00
 66.67     579.00
 66.77     562.04
 66.87     587.00
 66.97     590.00
 67.07     636.22
 67.17     644.86
 67.27     647.00
 67.37     731.00
 67.47     887.83
 67.57     999.12
 67.67    1147.00
 67.77    1248.00
 67.87    1474.00
 67.97    1746.00
 68.07    2001.00
 68.17    2242.00
 68.27    2421.00
 68.37    2324.00
 68.47    2278.18
 68.57    1994.41
 68.67    1803.00
 68.77    1627.00
 68.87    1260.38
 68.97    1104.86
 69.07     950.00
 69.17     902.66
 69.27     751.00
 69.37     741.54
 69.47     648.00
 69.57     652.35
 69.67     627.00
 69.77     601.06
 69.87     542.78
 69.97     578.00
 70.07     539.00
 70.17     545.97
 70.27     588.00
 70.37     569.02
 70.47     597.00
 70.57     651.00
 70.67     565.08
 70.77     574.00
 70.87     567.96
 70.97     569.05
 71.07     595.44
 71.17     705.06
 71.27     695.00
 71.37     811.00
 71.47     875.00
 71.57     942.00
 71.67    1070.00
 71.77    1331.52
 71.87    1416.00
 71.97    1535.77
 72.07    1755.00
 72.17    1779.00
 72.27    1790.00
 72.37    1875.52
 72.47    1761.68
 72.57    1668.00
 72.67    1387.85
 72.77    1317.00
 72.87    1185.00
 72.97    1009.00
 73.07     861.97
 73.17     795.23
 73.27     758.00
 73.37     723.52
 73.47     691.11
 73.57     653.00
 73.67     633.00
 73.77     608.00
 73.87     589.12
 73.97     595.00
 74.07     612.39
 74.17     599.93
 74.27     560.00
 74.37     611.00
 74.47     602.00
 74.57     575.38
 74.67     569.52
 74.77     613.00
 74.87     589.60
 74.97     642.00
 75.07     654.00
 75.17     611.00
 75.27     587.00
 75.37     622.00
 75.47     606.00
 75.57     593.36
 75.67     521.43
 75.77     569.01
 75.87     572.00
 75.97     563.00
 76.07     569.16
 76.17     663.00
 76.27     603.00
 76.37     628.01
 76.47     627.38
 76.57     702.00
 76.67     695.00
 76.77     677.93
 76.87     643.00
 76.97     728.82
 77.07     662.00
 77.17     657.00
 77.27     638.00
 77.37     617.81
 77.47     576.00
 77.57     562.00
 77.67     571.00
 77.77     586.59
 77.87     494.00
 77.97     516.44
 78.07     499.20
 78.17     501.00
 78.27     498.44
 78.37     494.45
 78.47     490.13
 78.57     557.73
 78.67     471.13
 78.77     486.00
 78.87     510.92
 78.97     510.00
 79.07     507.00
 79.17     542.00
 79.27     493.85
 79.37     515.97
 79.47     543.95
 79.57     496.00
 79.67     560.00
 79.77     536.49
 79.87     494.00
 79.97     516.00
 80.07     546.69
 80.17     510.00
 80.27     560.00
 80.37     533.08
 80.47     577.00
 80.57     548.00
 80.67     588.58
 80.77     576.67
 80.87     560.00
 80.97     682.17
 81.07     646.35
 81.17     726.20
 81.27     634.00
 81.37     762.74
 81.47     710.86
 81.57     765.54
 81.67     769.00
 81.77     718.00
 81.87     697.00
 81.97     719.00
 82.07     741.70
 82.17     722.00
 82.27     662.00
 82.37     653.00
 82.47     628.25
 82.57     630.00
 82.67     618.00
 82.77     588.00
 82.87     532.00
 82.97     568.00
 83.07     529.00
 83.17     501.00
 83.27     559.00
 83.37     521.00
 83.47     550.41
 83.57     526.09
 83.67     492.00
 83.77     519.00
 83.87     537.00
 83.97     589.00
 84.07     592.00
 84.17     560.94
 84.27     534.00
 84.37     538.00
 84.47     600.16
 84.57     541.00
 84.67     539.38
 84.77     586.00
 84.87     540.00
 84.97     506.00
 85.07     563.00
 85.17     513.00
 85.27     534.41
 85.37     488.21
 85.47     507.00
 85.57     495.22
 85.67     535.00
 85.77     499.00
 85.87     471.00
 85.97     503.36
 86.07     527.27
 86.17     529.00
 86.27     491.00
 86.37     537.63
 86.47     514.00
 86.57     499.48
 86.67     536.00
 86.77     520.12
 86.87     553.00
 86.97     553.00
 87.07     543.00
 87.17     580.00
 87.27     555.00
 87.37     625.00
 87.47     582.27
 87.57     603.60
 87.67     610.00
 87.77     628.00
 87.87     559.50
 87.97     585.27
 88.07     642.17
 88.17     572.00
 88.27     609.00
 88.37     608.00
 88.47     534.27
 88.57     582.88
 88.67     575.00
 88.77     578.00
 88.87     548.00
 88.97     572.00
 89.07     560.00
 89.17     599.00
 89.27     571.00
 89.37     571.00
 89.47     610.28
 89.57     538.00
 89.67     594.35
 89.77     610.59
 89.87     568.00
 89.97     577.00
 90.07     521.02
 90.17     592.00
 90.27     497.00
 90.37     503.00
 90.47     544.00
 90.57     519.76
 90.67     506.00
 90.77     521.69
 90.87     531.14
 90.97     516.00
 91.07     506.00
 91.17     506.97
 91.27     497.62
 91.37     469.00
 91.47     511.85
 91.57     509.00
 91.67     487.00
 91.77     563.00
 91.87     492.00
 91.97     490.00
 92.07     532.65
 92.17     561.87
 92.27     515.00
 92.37     530.95
 92.47     560.10
 92.57     561.00
 92.67     557.00
 92.77     590.00
 92.87     576.00
 92.97     578.00
 93.07     629.00
 93.17     622.25
 93.27     657.99
 93.37     715.00
 93.47     750.00
 93.57     719.03
 93.67     710.12
 93.77     747.32
 93.87     782.91
 93.97     727.81
 94.07     807.00
 94.17     840.00
 94.27     816.00
 94.37     844.00
 94.47     856.00
 94.57     882.33
 94.67     903.08
 94.77     899.00
 94.87     842.00
 94.97     866.90
 95.07     938.00
 95.17     915.12
 95.27     913.00
 95.37     878.00
 95.47     840.00
 95.57     836.00
 95.67     806.00
 95.77     768.00
 95.87     792.00
 95.97     690.02
 96.07     678.58
 96.17     639.14
 96.27     664.00
 96.37     646.86
 96.47     736.00
 96.57     722.00
 96.67     770.00
 96.77     811.00
 96.87     821.00
 96.97     954.00
 97.07     990.00
 97.17    1029.00
 97.27    1058.00
 97.37    1143.00
 97.47    1233.00
 97.57    1353.45
 97.67    1444.00
 97.77    1372.00
 97.87    1345.76
 97.97    1425.00
 98.07    1441.00
 98.17    1360.00
 98.27    1316.00
 98.37    1303.00
 98.47    1218.00
 98.57    1209.90
 98.67    1095.21
 98.77    1041.00
 98.87    1010.00
 98.97    1028.00
 99.07     887.00
 99.17     906.02
 99.27     849.00
 99.37     903.07
 99.47     946.00
 99.57     941.00
 99.67     969.86
 99.77     989.00
 99.87    1105.00
 99.97    1129.00
100.07    1265.00
100.17    1332.00
100.27    1394.00
100.37    1515.00
100.47    1620.00
100.57    1705.00
100.67    1730.29
100.77    1792.28
100.87    1905.00
100.97    1952.00
101.07    1952.00
101.17    1922.77
101.27    1886.00
101.37    1890.94
101.47    1817.35
101.57    1826.00
101.67    1664.86
101.77    1682.00
101.87    1565.00
101.97    1561.00
102.07    1393.00
102.17    1425.86
102.27    1314.08
102.37    1307.00
102.47    1314.00
102.57    1160.17
102.67    1186.00
102.77    1171.00
102.87    1120.00
102.97    1163.45
103.07    1118.26
103.17    1041.00
103.27    1009.00
103.37     992.00
103.47     921.57
103.57     946.00
103.67     903.00
103.77     849.00
103.87     820.00
103.97     751.00
104.07     765.00
104.17     680.02
104.27     649.25
104.37     650.00
104.47     607.38
104.57     556.07
104.67     578.12
104.77     546.00
104.87     506.26
104.97     558.00
105.07     511.00
105.17     533.00
105.27     545.00
105.37     534.00
105.47     541.00
105.57     586.00
105.67     520.03
105.77     531.73
105.87     567.60
105.97     507.00
106.07     528.38
106.17     542.00
106.27     530.00
106.37     554.00
106.47     597.00
106.57     564.73
106.67     548.04
106.77     598.00
106.87     641.00
106.97     583.46
107.07     653.00
107.17     658.00
107.27     660.00
107.37     664.06
107.47     659.00
107.57     650.00
107.67     665.00
107.77     639.46
107.87     688.48
107.97     705.89
108.07     679.00
108.17     696.00
108.27     679.00
108.37     658.55
108.47     717.45
108.57     646.33
108.67     714.21
108.77     659.00
108.87     659.00
108.97     689.00
109.07     650.00
109.17     723.00
109.27     635.00
109.37     704.54
109.47     711.10
109.57     678.00
109.67     670.00
109.77     685.00
109.87     619.00
109.97     677.00
110.07     607.62
110.17     632.00
110.27     603.00
110.37     578.90
110.47     605.00
110.57     562.00
110.67     596.00
110.77     615.26
110.87     559.06
110.97     547.20
111.07     536.00
111.17     594.00
111.27     563.00
111.37     534.00
111.47     579.55
111.57     564.00
111.67     557.00
111.77     555.00
111.87     557.29
111.97     572.00
112.07     543.29
112.17     532.00
112.27     537.35
112.37     619.00
112.47     590.21
112.57     575.00
112.67     566.26
112.77     539.00
112.87     553.00
112.97     545.00
113.07     566.00
113.17     574.00
113.27     576.00
113.37     594.38
113.47     589.83
113.57     645.00
113.67     612.00
113.77     699.23
113.87     716.16
113.97     732.41
114.07     693.00
114.17     700.09
114.27     710.00
114.37     864.35
114.47     873.00
114.57     876.00
114.67    1060.66
114.77    1103.46
114.87    1139.35
114.97    1269.83
115.07    1480.00
115.17    1600.00
115.27    1895.00
115.37    1922.01
115.47    2391.00
115.57    2572.00
115.67    2698.34
115.77    3163.53
115.87    3306.00
115.97    3836.00
116.07    4263.00
116.17    4528.00
116.27    4907.00
116.37    5336.19
116.47    5532.00
116.57    5995.00
116.67    6199.00
116.77    6604.99
116.87    6761.00
116.97    6806.00
117.07    7079.00
117.17    6857.00
117.27    7011.00
117.37    6671.27
117.47    6586.67
117.57    6187.00
117.67    6031.27
117.77    5722.00
117.87    5284.15
117.97    4965.28
118.07    4692.94
118.17    4204.00
118.27    4033.00
118.37    3698.82
118.47    3217.00
118.57    2986.00
118.67    2620.00
118.77    2351.00
118.87    2121.00
118.97    1934.02
119.07    1760.00
119.17    1480.00
119.27    1405.00
119.37    1337.06
119.47    1145.02
119.57    1095.33
119.67     991.00
119.77     958.35
119.87     924.49
119.97     838.00
120.07     776.00
120.17     759.00
120.27     678.54
120.37     722.59
120.47     619.00
120.57     689.00
120.67     628.00
120.77     621.46
120.87     595.00
120.97     572.00
121.07     551.63
121.17     544.91
121.27     589.00
121.37     569.00
121.47     545.00
121.57     589.55
121.67     603.75
121.77     579.00
121.87     583.83
121.97     579.00
122.07     607.75
122.17     584.40
122.27     550.35
122.37     615.00
122.47     642.00
122.57     618.69
122.67     575.00
122.77     592.00
122.87     578.00
122.97     619.02
123.07     654.00
123.17     577.00
123.27     639.00
123.37     646.00
123.47     674.21
123.57     671.00
123.67     639.00
123.77     613.00
123.87     616.00
123.97     644.00
124.07     599.00
124.17     587.99
124.27     606.00
124.37     635.84
124.47     600.00
124.57     576.80
124.67     562.36
124.77     609.00
124.87     541.16
124.97     584.20
