  9.97     615.49
 10.07     612.00
 10.17     586.48
 10.27     543.01
 10.37     563.07
 10.47     605.00
 10.57     586.97
 10.67     578.55
 10.77     606.00
 10.87     552.19
 10.97     609.43
 11.07     615.00
 11.17     571.75
 11.27     588.00
 11.37     609.00
 11.47     619.00
 11.57     672.00
 11.67     596.00
 11.77     610.00
 11.87     644.00
 11.97     656.00
 12.07     713.17
 12.17     662.00
 12.27     689.00
 12.37     633.59
 12.47     685.65
 12.57     636.87
 12.67     600.00
 12.77     621.60
 12.87     552.00
 12.97     534.20
 13.07     552.00
 13.17     587.00
 13.27     586.61
 13.37     563.00
 13.47     601.00
 13.57     617.98
 13.67     542.09
 13.77     552.00
 13.87     552.03
 13.97     611.43
 14.07     605.38
 14.17     540.83
 14.27     560.00
 14.37     575.67
 14.47     614.16
 14.57     553.00
 14.67     547.91
 14.77     579.93
 14.87     580.00
 14.97     599.10
 15.07     569.00
 15.17     608.93
 15.27     518.00
 15.37     540.00
 15.47     605.00
 15.57     577.00
 15.67     577.00
 15.77     512.00
 15.87     554.00
 15.97     543.17
 16.07     575.63
 16.17     592.00
 16.27     544.00
 16.37     575.00
 16.47     543.99
 16.57     531.00
 16.67     550.01
 16.77     566.00
 16.87     580.00
 16.97     560.00
 17.07     581.00
 17.17     554.00
 17.27     539.00
 17.37     565.00
 17.47     539.00
 17.57     527.00
 17.67     571.00
 17.77     575.00
 17.87     556.00
 17.97     570.00
 18.07     597.00
 18.17     563.68
 18.27     573.00
 18.37     569.34
 18.47     593.41
 18.57     543.02
 18.67     532.00
 18.77     554.00
 18.87     561.34
 18.97     580.58
 19.07     584.58
 19.17     578.16
 19.27     535.00
 19.37     582.35
 19.47     564.00
 19.57     540.00
 19.67     542.66
 19.77     521.00
 19.87     573.00
 19.97     621.00
 20.07     532.00
 20.17     585.00
 20.27     517.87
 20.37     596.42
 20.47     539.52
 20.57     558.00
 20.67     520.00
 20.77     578.00
 20.87     586.00
 20.97     578.21
 21.07     580.36
 21.17     545.82
 21.27     520.72
 21.37     587.00
 21.47     533.83
 21.57     553.00
 21.67     557.00
 21.77     544.00
 21.87     530.87
 21.97     547.00
 22.07     545.00
 22.17     570.00
 22.27     534.00
 22.37     518.00
 22.47     590.24
 22.57     533.75
 22.67     581.00
 22.77     520.00
 22.87     569.00
 22.97     578.00
 23.07     593.00
 23.17     572.00
 23.27     544.81
 23.37     531.10
 23.47     519.27
 23.57     547.00
 23.67     573.90
 23.77     507.68
 23.87     559.00
 23.97     535.00
 24.07     532.49
 24.17     564.00
 24.27     517.06
 24.37     568.00
 24.47     560.00
 24.57     616.07
 24.67     620.00
 24.77     609.10
 24.87     578.00
 24.97     642.00
 25.07     571.74
 25.17     536.00
 25.27     581.00
 25.37     510.00
 25.47     559.00
 25.57     570.00
 25.67     546.00
 25.77     548.83
 25.87     542.94
 25.97     542.00
 26.07     562.00
 26.17     536.00
 26.27     562.00
 26.37     534.00
 26.47     495.00
 26.57     523.06
 26.67     523.00
 26.77     534.00
 26.87     564.00
 26.97     573.20
 27.07     552.00
 27.17     524.66
 27.27     544.00
 27.37     539.99
 27.47     512.15
 27.57     576.00
 27.67     526.14
 27.77     520.37
 27.87     593.00
 27.97     652.00
 28.07     853.00
 28.17     843.00
 28.27     982.00
 28.37     868.00
 28.47     793.00
 28.57     729.86
 28.67     669.00
 28.77     723.00
 28.87     800.00
 28.97     825.19
 29.07     856.45
 29.17     717.34
 29.27     629.00
 29.37     549.00
 29.47     571.83
 29.57     554.00
 29.67     575.00
 29.77     548.67
 29.87     564.00
 29.97     533.62
 30.07     535.98
 30.17     595.00
 30.27     522.00
 30.37     540.00
 30.47     536.15
 30.57     550.00
 30.67     599.00
 30.77     549.00
 30.87     583.00
 30.97     633.00
 31.07     627.00
 31.17     537.17
 31.27     537.00
 31.37     562.00
 31.47     539.58
 31.57     534.75
 31.67     526.00
 31.77     561.10
 31.87     561.39
 31.97     547.00
 32.07     526.18
 32.17     510.00
 32.27     560.00
 32.37     564.00
 32.47     499.28
 32.57     592.00
 32.67     547.00
 32.77     558.26
 32.87     589.00
 32.97     573.20
 33.07     501.16
 33.17     557.00
 33.27     550.28
 33.37     605.00
 33.47     567.00
 33.57     587.00
 33.67     640.00
 33.77     789.00
 33.87     917.00
 33.97    1047.00
 34.07    1059.00
 34.17    1024.92
 34.27     877.00
 34.37     782.62
 34.47     668.41
 34.57     593.00
 34.67     568.00
 34.77     525.00
 34.87     533.00
 34.97     558.00
 35.07     529.00
 35.17     521.32
 35.27     486.00
 35.37     492.56
 35.47     547.00
 35.57     523.35
 35.67     509.00
 35.77     529.47
 35.87     487.91
 35.97     540.44
 36.07     531.00
 36.17     527.61
 36.27     515.00
 36.37     549.76
 36.47     541.39
 36.57     536.00
 36.67     493.00
 36.77     528.00
 36.87     479.84
 36.97     543.00
 37.07     527.00
 37.17     505.65
 37.27     552.00
 37.37     515.00
 37.47     484.00
 37.57     508.00
 37.67     569.72
 37.77     560.00
 37.87     492.00
 37.97     537.00
 38.07     510.00
 38.17     506.00
 38.27     549.00
 38.37     499.74
 38.47     513.00
 38.57     513.00
 38.67     519.00
 38.77     492.00
 38.87     546.00
 38.97     519.69
 39.07     480.00
 39.17     497.00
 39.27     532.00
 39.37     514.81
 39.47     496.00
 39.57     464.00
 39.67     523.00
 39.77     474.55
 39.87     498.00
 39.97     512.00
 40.07     492.70
 40.17     512.00
 40.27     522.00
 40.37     522.55
 40.47     514.00
 40.57     523.41
 40.67     532.89
 40.77     503.00
 40.87     531.00
 40.97     498.00
 41.07     534.00
 41.17     502.00
 41.27     500.00
 41.37     509.00
 41.47     511.00
 41.57     513.00
 41.67     482.00
 41.77     494.00
 41.87     481.00
 41.97     553.00
 42.07     472.00
 42.17     506.00
 42.27     524.00
 42.37     491.00
 42.47     564.00
 42.57     644.00
 42.67     611.32
 42.77     600.94
 42.87     569.00
 42.97     625.10
 43.07     539.00
 43.17     562.90
 43.27     452.00
 43.37     559.42
 43.47     475.00
 43.57     489.00
 43.67     564.00
 43.77     510.00
 43.87     479.05
 43.97     503.00
 44.07     523.00
 44.17     521.84
 44.27     480.39
 44.37     527.43
 44.47     496.00
 44.57     578.00
 44.67     501.00
 44.77     551.00
 44.87     508.00
 44.97     536.00
 45.07     480.83
 45.17     543.30
 45.27     489.38
 45.37     603.00
 45.47     489.00
 45.57     494.00
 45.67     475.00
 45.77     531.92
 45.87     472.85
 45.97     521.00
 46.07     535.57
 46.17     533.00
 46.27     506.00
 46.37     500.00
 46.47     486.76
 46.57     529.00
 46.67     537.00
 46.77     501.00
 46.87     457.00
 46.97     527.00
 47.07     544.28
 47.17     542.00
 47.27     515.00
 47.37     531.10
 47.47     535.00
 47.57     561.00
 47.67     554.00
 47.77     613.00
 47.87     591.00
 47.97     598.00
 48.07     567.00
 48.17     575.00
 48.27     519.67
 48.37     536.00
 48.47     523.00
 48.57     553.00
 48.67     525.38
 48.77     534.00
 48.87     547.00
 48.97     585.00
 49.07     609.59
 49.17     545.05
 49.27     632.72
 49.37     643.87
 49.47     668.00
 49.57     786.52
 49.67     935.00
 49.77    1080.56
 49.87    1406.19
 49.97    1841.00
 50.07    2251.00
 50.17    2476.00
 50.27    2515.34
 50.37    2222.00
 50.47    1922.36
 50.57    1486.17
 50.67    1101.00
 50.77     820.00
 50.87     702.00
 50.97     691.61
 51.07     604.00
 51.17     640.00
 51.27     655.00
 51.37     567.35
 51.47     577.00
 51.57     602.00
 51.67     567.00
 51.77     555.70
 51.87     574.00
 51.97     545.00
 52.07     560.49
 52.17     546.00
 52.27     543.00
 52.37     511.04
 52.47     578.00
 52.57     570.41
 52.67     622.00
 52.77     587.87
 52.87     636.00
 52.97     747.83
 53.07     783.00
 53.17     879.00
 53.27    1019.00
 53.37    1143.00
 53.47    1179.00
 53.57    1147.08
 53.67    1122.00
 53.77    1059.25
 53.87     850.00
 53.97     822.64
 54.07     681.00
 54.17     621.00
 54.27     580.68
 54.37     542.00
 54.47     553.21
 54.57     541.36
 54.67     516.02
 54.77     589.99
 54.87     576.86
 54.97     592.80
 55.07     594.00
 55.17     571.07
 55.27     605.00
 55.37     585.11
 55.47     564.00
 55.57     588.00
 55.67     613.91
 55.77     617.62
 55.87     558.32
 55.97     588.00
 56.07     675.00
 56.17     721.00
 56.27     910.00
 56.37    1180.00
 56.47    1397.09
 56.57    1802.52
 56.67    2140.14
 56.77    2420.65
 56.87    2584.00
 56.97    2624.00
 57.07    2381.87
 57.17    2063.00
 57.27    1606.00
 57.37    1247.61
 57.47    1034.50
 57.57     888.00
 57.67     773.00
 57.77     711.00
 57.87     676.00
 57.97     640.96
 58.07     648.00
 58.17     699.11
 58.27     760.00
 58.37     796.39
 58.47     980.11
 58.57    1027.00
 58.67    1165.00
 58.77    1271.86
 58.87    1413.00
 58.97    1450.00
 59.07    1520.00
 59.17    1451.11
 59.27    1474.00
 59.37    1315.00
 59.47    1221.00
 59.57    1153.78
 59.67    1052.98
 59.77    1135.00
 59.87    1256.00
 59.97    1321.97
 60.07    1461.00
 60.17    1559.00
 60.27    1480.08
 60.37    1512.70
 60.47    1344.98
 60.57    1279.79
 60.67    1088.00
 60.77     934.25
 60.87     848.40
 60.97     750.11
 61.07     668.00
 61.17     667.00
 61.27     669.36
 61.37     654.00
 61.47     705.00
 61.57     740.94
 61.67     847.00
 61.77     963.79
 61.87    1124.00
 61.97    1256.75
 62.07    1274.00
 62.17    1451.43
 62.27    1388.00
 62.37    1399.24
 62.47    1169.00
 62.57    1079.00
 62.67     847.00
 62.77     761.00
 62.87     710.32
 62.97     659.00
 63.07     575.00
 63.17     560.00
 63.27     600.05
 63.37     595.00
 63.47     562.01
 63.57     575.00
 63.67     629.00
 63.77     589.42
 63.87     633.17
 63.97     687.24
 64.07     683.73
 64.17     782.00
 64.27     822.00
 64.37     914.00
 64.47    1007.00
 64.57    1046.41
 64.67    1054.00
 64.77     960.70
 64.87    1019.00
 64.97     866.15
 65.07     894.00
 65.17     791.00
 65.27     674.00
 65.37     662.17
 65.47     609.00
 65.57     616.00
 65.67     653.00
 65.77     570.00
 65.87     590.00
 65.97     577.00
 66.07     591.54
 66.17     547.00
 66.27     535.28
 66.37     594.00
 66.47     554.00
 66.57     571.43
 66.67     612.05
 66.77     584.00
 66.87     585.00
 66.97     564.00
 67.07     614.28
 67.17     709.57
 67.27     818.08
 67.37     876.00
 67.47    1044.96
 67.57    1269.54
 67.67    1543.00
 67.77    1811.00
 67.87    2108.00
 67.97    2275.19
 68.07    2456.20
 68.17    2418.00
 68.27    2215.00
 68.37    2103.00
 68.47    1793.38
 68.57    1521.00
 68.67    1321.00
 68.77    1057.00
 68.87     861.00
 68.97     775.06
 69.07     710.00
 69.17     689.00
 69.27     646.00
 69.37     603.00
 69.47     611.46
 69.57     526.00
 69.67     567.00
 69.77     554.00
 69.87     557.34
 69.97     521.07
 70.07     572.00
 70.17     554.00
 70.27     518.00
 70.37     555.00
 70.47     554.00
 70.57     548.00
 70.67     603.00
 70.77     599.00
 70.87     652.00
 70.97     643.63
 71.07     673.00
 71.17     770.00
 71.27     810.00
 71.37     903.17
 71.47    1129.00
 71.57    1313.08
 71.67    1458.95
 71.77    1656.00
 71.87    1822.00
 71.97    1907.83
 72.07    1825.00
 72.17    1903.56
 72.27    1834.00
 72.37    1624.71
 72.47    1454.00
 72.57    1290.89
 72.67    1094.00
 72.77    1027.00
 72.87     923.00
 72.97     851.00
 73.07     763.00
 73.17     731.00
 73.27     753.83
 73.37     655.00
 73.47     661.00
 73.57     594.90
 73.67     638.11
 73.77     592.00
 73.87     602.00
 73.97     560.79
 74.07     601.63
 74.17     627.00
 74.27     636.00
 74.37     611.00
 74.47     598.94
 74.57     662.00
 74.67     624.00
 74.77     588.00
 74.87     533.20
 74.97     600.55
 75.07     603.00
 75.17     593.00
 75.27     560.00
 75.37     566.00
 75.47     591.00
 75.57     559.34
 75.67     598.16
 75.77     590.98
 75.87     591.00
 75.97     628.00
 76.07     606.47
 76.17     653.00
 76.27     644.82
 76.37     661.00
 76.47     769.00
 76.57     688.57
 76.67     675.00
 76.77     696.37
 76.87     635.95
 76.97     629.00
 77.07     609.52
 77.17     572.84
 77.27     576.90
 77.37     482.00
 77.47     507.00
 77.57     552.73
 77.67     535.00
 77.77     557.05
 77.87     571.33
 77.97     495.14
 78.07     525.57
 78.17     528.32
 78.27     521.00
 78.37     524.54
 78.47     528.00
 78.57     506.25
 78.67     469.00
 78.77     494.00
 78.87     503.00
 78.97     497.00
 79.07     515.13
 79.17     572.30
 79.27     535.00
 79.37     513.00
 79.47     539.00
 79.57     529.00
 79.67     498.00
 79.77     505.00
 79.87     583.70
 79.97     549.99
 80.07     559.00
 80.17     583.00
 80.27     598.86
 80.37     560.00
 80.47     590.00
 80.57     610.27
 80.67     594.00
 80.77     662.62
 80.87     685.00
 80.97     680.00
 81.07     721.00
 81.17     743.00
 81.27     704.79
 81.37     785.34
 81.47     731.00
 81.57     754.62
 81.67     743.78
 81.77     740.00
 81.87     721.00
 81.97     701.00
 82.07     696.55
 82.17     668.00
 82.27     663.00
 82.37     636.00
 82.47     598.00
 82.57     566.54
 82.67     574.62
 82.77     545.00
 82.87     570.00
 82.97     572.00
 83.07     595.00
 83.17     587.53
 83.27     536.00
 83.37     501.00
 83.47     519.59
 83.57     554.00
 83.67     546.00
 83.77     572.00
 83.87     546.00
 83.97     576.00
 84.07     545.34
 84.17     565.00
 84.27     584.00
 84.37     611.78
 84.47     605.76
 84.57     581.00
 84.67     573.62
 84.77     571.39
 84.87     567.00
 84.97     548.00
 85.07     538.33
 85.17     524.02
 85.27     551.00
 85.37     536.00
 85.47     541.49
 85.57     502.73
 85.67     528.00
 85.77     519.14
 85.87     510.52
 85.97     500.00
 86.07     512.00
 86.17     518.37
 86.27     506.06
 86.37     567.12
 86.47     541.00
 86.57     598.00
 86.67     554.74
 86.77     557.91
 86.87     539.47
 86.97     608.00
 87.07     617.00
 87.17     635.44
 87.27     665.77
 87.37     657.95
 87.47     624.72
 87.57     668.00
 87.67     652.00
 87.77     622.00
 87.87     624.00
 87.97     633.00
 88.07     640.00
 88.17     603.00
 88.27     584.00
 88.37     558.00
 88.47     596.23
 88.57     582.00
 88.67     571.00
 88.77     543.52
 88.87     625.00
 88.97     574.71
 89.07     611.19
 89.17     609.56
 89.27     589.00
 89.37     583.37
 89.47     604.21
 89.57     593.00
 89.67     581.74
 89.77     571.00
 89.87     599.43
 89.97     557.11
 90.07     541.12
 90.17     530.00
 90.27     577.44
 90.37     549.00
 90.47     516.00
 90.57     511.00
 90.67     565.23
 90.77     503.00
 90.87     495.00
 90.97     556.81
 91.07     524.71
 91.17     524.00
 91.27     511.00
 91.37     496.31
 91.47     508.00
 91.57     532.00
 91.67     514.13
 91.77     555.28
 91.87     504.82
 91.97     556.00
 92.07     606.96
 92.17     545.00
 92.27     619.00
 92.37     609.00
 92.47     636.00
 92.57     610.00
 92.67     638.00
 92.77     737.00
 92.87     724.79
 92.97     767.00
 93.07     720.38
 93.17     786.81
 93.27     778.00
 93.37     840.85
 93.47     840.00
 93.57     804.70
 93.67     841.00
 93.77     814.98
 93.87     892.00
 93.97     848.00
 94.07     845.00
 94.17     820.33
 94.27     924.00
 94.37     879.00
 94.47     896.00
 94.57     875.00
 94.67     944.00
 94.77     827.49
 94.87     911.00
 94.97     885.62
 95.07     947.00
 95.17     837.13
 95.27     801.00
 95.37     811.00
 95.47     818.00
 95.57     770.75
 95.67     727.00
 95.77     714.00
 95.87     735.00
 95.97     723.60
 96.07     734.00
 96.17     728.72
 96.27     689.54
 96.37     766.00
 96.47     834.00
 96.57     909.42
 96.67     920.00
 96.77     983.00
 96.87    1066.00
 96.97    1091.00
 97.07    1199.00
 97.17    1272.00
 97.27    1388.00
 97.37    1414.00
 97.47    1411.00
 97.57    1469.00
 97.67    1497.00
 97.77    1413.00
 97.87    1401.00
 97.97    1297.97
 98.07    1180.00
 98.17    1151.00
 98.27    1154.00
 98.37     988.40
 98.47     973.46
 98.57     959.00
 98.67     846.00
 98.77     861.00
 98.87     778.43
 98.97     810.00
 99.07     807.10
 99.17     847.00
 99.27     890.15
 99.37     963.00
 99.47     973.00
 99.57    1165.00
 99.67    1223.96
 99.77    1314.00
 99.87    1430.00
 99.97    1512.00
100.07    1624.64
100.17    1717.00
100.27    1773.00
100.37    1982.00
100.47    2005.99
100.57    2110.00
100.67    2130.00
100.77    1989.00
100.87    2017.00
100.97    2025.00
101.07    1927.00
101.17    1911.00
101.27    1743.00
101.37    1646.88
101.47    1649.00
101.57    1558.83
101.67    1373.00
101.77    1383.20
101.87    1264.00
101.97    1229.00
102.07    1202.00
102.17    1159.00
102.27    1157.00
102.37    1160.13
102.47    1052.00
102.57    1090.00
102.67    1045.00
102.77     995.00
102.87    1027.96
102.97     891.00
103.07     922.40
103.17     879.77
103.27     805.00
103.37     878.00
103.47     821.00
103.57     747.00
103.67     717.24
103.77     658.00
103.87     606.44
103.97     611.00
104.07     604.00
104.17     574.00
104.27     548.00
104.37     558.00
104.47     535.68
104.57     570.00
104.67     571.00
104.77     554.00
104.87     535.00
104.97     544.00
105.07     530.39
105.17     496.88
105.27     578.00
105.37     524.00
105.47     537.21
105.57     523.19
105.67     554.00
105.77     590.00
105.87     552.16
105.97     546.00
106.07     589.00
106.17     591.00
106.27     549.00
106.37     658.00
106.47     612.98
106.57     645.00
106.67     648.65
106.77     620.84
106.87     688.79
106.97     725.91
107.07     684.00
107.17     659.00
107.27     696.00
107.37     722.37
107.47     744.87
107.57     711.00
107.67     729.53
107.77     694.41
107.87     650.00
107.97     645.00
108.07     700.00
108.17     660.00
108.27     707.77
108.37     671.00
108.47     648.00
108.57     715.88
108.67     700.00
108.77     673.12
108.87     660.06
108.97     665.00
109.07     726.00
109.17     674.00
109.27     695.08
109.37     643.00
109.47     661.00
109.57     657.00
109.67     577.00
109.77     616.00
109.87     620.00
109.97     624.00
110.07     558.88
110.17     593.31
110.27     526.39
110.37     561.00
110.47     571.00
110.57     552.00
110.67     591.00
110.77     566.58
110.87     570.15
110.97     570.97
111.07     525.00
111.17     554.48
111.27     569.00
111.37     536.00
111.47     566.00
111.57     510.09
111.67     561.00
111.77     574.00
111.87     600.50
111.97     594.39
112.07     577.00
112.17     575.00
112.27     590.62
112.37     560.04
112.47     562.42
112.57     559.00
112.67     569.00
112.77     600.10
112.87     647.00
112.97     630.50
113.07     635.23
113.17     655.00
113.27     680.77
113.37     727.00
113.47     746.00
113.57     759.00
113.67     827.36
113.77     840.00
113.87     883.00
113.97     965.00
114.07     971.00
114.17    1111.00
114.27    1095.77
114.37    1213.51
114.47    1253.00
114.57    1400.00
114.67    1500.00
114.77    1719.08
114.87    1911.00
114.97    2120.00
115.07    2355.00
115.17    2607.00
115.27    2799.17
115.37    3077.86
115.47    3441.00
115.57    3821.00
115.67    4182.00
115.77    4441.00
115.87    4816.00
115.97    5242.59
116.07    5625.04
116.17    5965.00
116.27    6464.00
116.37    6593.00
116.47    6570.29
116.57    6901.00
116.67    6998.00
116.77    7039.00
116.87    6838.00
116.97    6492.00
117.07    6433.00
117.17    6116.60
117.27    5652.34
117.37    5447.64
117.47    4993.46
117.57    4627.00
117.67    4215.00
117.77    3867.00
117.87    3563.00
117.97    3219.00
118.07    2887.36
118.17    2550.00
118.27    2260.28
118.37    2020.76
118.47    1712.00
118.57    1611.00
118.67    1485.68
118.77    1273.00
118.87    1133.00
118.97    1064.00
119.07     993.00
119.17     916.00
119.27     846.00
119.37     823.47
119.47     719.02
119.57     760.60
119.67     707.06
119.77     674.00
119.87     670.22
119.97     642.00
120.07     625.48
120.17     624.00
120.27     572.88
120.37     565.00
120.47     574.00
120.57     558.00
120.67     618.89
120.77     592.00
120.87     572.00
120.97     577.00
121.07     605.63
121.17     582.46
121.27     618.01
121.37     593.00
121.47     619.63
121.57     576.00
121.67     551.00
121.77     622.00
121.87     611.00
121.97     628.00
122.07     627.00
122.17     656.21
122.27     610.00
122.37     586.44
122.47     651.00
122.57     656.00
122.67     680.00
122.77     617.00
122.87     644.00
122.97     699.00
123.07     648.61
123.17     671.00
123.27     647.00
123.37     679.00
123.47     644.00
123.57     640.00
123.67     636.00
123.77     645.45
123.87     640.00
123.97     591.00
124.07     582.72
124.17     586.00
124.27     600.00
124.37     589.00
124.47     623.68
124.57     629.00
124.67     579.00
124.77     598.00
124.87     562.00
124.97     584.94
