  9.97     605.00
 10.07     585.00
 10.17     623.00
 10.27     603.00
 10.37     623.00
 10.47     582.00
 10.57     555.59
 10.67     619.00
 10.77     543.21
 10.87     595.97
 10.97     515.00
 11.07     547.77
 11.17     544.00
 11.27     584.00
 11.37     592.00
 11.47     553.53
 11.57     539.00
 11.67     617.00
 11.77     563.35
 11.87     606.33
 11.97     646.00
 12.07     637.00
 12.17     655.00
 12.27     669.00
 12.37     661.00
 12.47     668.00
 12.57     591.00
 12.67     573.00
 12.77     623.59
 12.87     569.00
 12.97     559.00
 13.07     571.00
 13.17     576.00
 13.27     529.68
 13.37     578.00
 13.47     545.00
 13.57     570.08
 13.67     543.00
 13.77     543.83
 13.87     554.00
 13.97     535.00
 14.07     530.00
 14.17     583.34
 14.27     521.00
 14.37     544.00
 14.47     563.00
 14.57     570.00
 14.67     549.81
 14.77     561.00
 14.87     513.00
 14.97     584.06
 15.07     545.00
 15.17     519.06
 15.27     609.00
 15.37     566.00
 15.47     535.00
 15.57     545.96
 15.67     576.08
 15.77     563.00
 15.87     552.00
 15.97     595.72
 16.07     562.00
 16.17     575.94
 16.27     559.39
 16.37     509.00
 16.47     544.00
 16.57     559.00
 16.67     538.77
 16.77     512.18
 16.87     554.00
 16.97     574.43
 17.07     516.21
 17.17     553.37
 17.27     535.62
 17.37     519.00
 17.47     553.00
 17.57     522.26
 17.67     575.57
 17.77     588.00
 17.87     544.00
 17.97     540.00
 18.07     585.03
 18.17     566.00
 18.27     560.00
 18.37     554.00
 18.47     548.86
 18.57     539.00
 18.67     546.83
 18.77     584.49
 18.87     584.00
 18.97     581.61
 19.07     595.69
 19.17     544.00
 19.27     553.00
 19.37     590.00
 19.47     561.00
 19.57     561.00
 19.67     588.92
 19.77     536.00
 19.87     552.29
 19.97     593.33
 20.07     589.00
 20.17     551.00
 20.27     583.00
 20.37     589.12
 20.47     535.00
 20.57     556.00
 20.67     529.01
 20.77     572.00
 20.87     592.07
 20.97     535.00
 21.07     504.00
 21.17     581.00
 21.27     560.00
 21.37     574.00
 21.47     574.00
 21.57     568.89
 21.67     538.00
 21.77     521.93
 21.87     518.00
 21.97     538.00
 22.07     563.79
 22.17     553.32
 22.27     569.00
 22.37     519.00
 22.47     556.00
 22.57     560.00
 22.67     542.00
 22.77     574.07
 22.87     534.00
 22.97     540.00
 23.07     510.77
 23.17     595.00
 23.27     517.00
 23.37     537.00
 23.47     539.00
 23.57     547.00
 23.67     566.00
 23.77     562.00
 23.87     527.00
 23.97     533.00
 24.07     528.00
 24.17     548.00
 24.27     582.00
 24.37     560.00
 24.47     590.00
 24.57     558.00
 24.67     612.00
 24.77     630.00
 24.87     633.00
 24.97     615.76
 25.07     562.00
 25.17     555.98
 25.27     569.05
 25.37     572.00
 25.47     560.00
 25.57     517.00
 25.67     559.00
 25.77     604.00
 25.87     535.38
 25.97     542.00
 26.07     561.00
 26.17     594.00
 26.27     563.00
 26.37     550.00
 26.47     566.00
 26.57     548.00
 26.67     572.00
 26.77     541.00
 26.87     546.00
 26.97     544.00
 27.07     563.00
 27.17     571.48
 27.27     543.27
 27.37     522.92
 27.47     503.19
 27.57     550.00
 27.67     546.82
 27.77     598.00
 27.87     602.00
 27.97     670.00
 28.07     763.00
 28.17     896.00
 28.27     950.00
 28.37     901.00
 28.47     856.00
 28.57     721.00
 28.67     721.94
 28.77     747.00
 28.87     812.00
 28.97     834.64
 29.07     842.00
 29.17     723.00
 29.27     647.52
 29.37     655.89
 29.47     563.00
 29.57     585.00
 29.67     605.00
 29.77     588.95
 29.87     615.15
 29.97     632.00
 30.07     596.53
 30.17     575.00
 30.27     606.00
 30.37     554.00
 30.47     596.00
 30.57     541.87
 30.67     575.00
 30.77     581.85
 30.87     596.00
 30.97     629.00
 31.07     606.32
 31.17     623.00
 31.27     559.75
 31.37     519.00
 31.47     538.55
 31.57     530.00
 31.67     557.00
 31.77     549.00
 31.87     544.00
 31.97     569.00
 32.07     535.00
 32.17     573.00
 32.27     533.00
 32.37     535.00
 32.47     539.00
 32.57     506.00
 32.67     583.00
 32.77     560.86
 32.87     558.00
 32.97     578.00
 33.07     535.00
 33.17     534.00
 33.27     499.51
 33.37     495.14
 33.47     541.00
 33.57     563.00
 33.67     614.00
 33.77     702.12
 33.87     791.67
 33.97     993.00
 34.07    1079.00
 34.17    1027.00
 34.27     919.00
 34.37     785.00
 34.47     654.53
 34.57     613.56
 34.67     543.89
 34.77     530.96
 34.87     483.00
 34.97     535.77
 35.07     490.00
 35.17     555.07
 35.27     525.00
 35.37     533.61
 35.47     567.23
 35.57     539.00
 35.67     514.76
 35.77     477.04
 35.87     530.00
 35.97     520.00
 36.07     511.58
 36.17     459.00
 36.27     495.29
 36.37     523.00
 36.47     488.00
 36.57     527.40
 36.67     493.97
 36.77     510.00
 36.87     530.00
 36.97     487.00
 37.07     498.98
 37.17     492.00
 37.27     480.32
 37.37     552.33
 37.47     490.86
 37.57     546.00
 37.67     482.00
 37.77     494.00
 37.87     510.00
 37.97     472.96
 38.07     544.00
 38.17     508.00
 38.27     496.00
 38.37     507.00
 38.47     508.77
 38.57     458.00
 38.67     496.00
 38.77     474.00
 38.87     506.00
 38.97     476.00
 39.07     485.26
 39.17     491.00
 39.27     503.81
 39.37     493.00
 39.47     473.00
 39.57     508.00
 39.67     528.00
 39.77     526.00
 39.87     471.00
 39.97     515.54
 40.07     507.80
 40.17     491.00
 40.27     510.05
 40.37     545.42
 40.47     466.00
 40.57     469.88
 40.67     498.00
 40.77     506.00
 40.87     519.00
 40.97     488.00
 41.07     501.54
 41.17     475.00
 41.27     476.55
 41.37     504.00
 41.47     520.00
 41.57     471.50
 41.67     479.45
 41.77     493.00
 41.87     469.80
 41.97     491.00
 42.07     551.00
 42.17     482.12
 42.27     530.00
 42.37     515.39
 42.47     615.40
 42.57     576.00
 42.67     588.00
 42.77     568.00
 42.87     629.52
 42.97     557.00
 43.07     567.00
 43.17     503.00
 43.27     472.68
 43.37     505.00
 43.47     509.00
 43.57     545.58
 43.67     532.61
 43.77     458.56
 43.87     503.00
 43.97     515.98
 44.07     483.00
 44.17     539.98
 44.27     545.92
 44.37     528.11
 44.47     508.00
 44.57     516.00
 44.67     516.00
 44.77     490.00
 44.87     495.68
 44.97     501.17
 45.07     542.00
 45.17     487.00
 45.27     478.17
 45.37     495.00
 45.47     510.00
 45.57     497.48
 45.67     526.00
 45.77     461.02
 45.87     476.00
 45.97     458.30
 46.07     479.00
 46.17     493.00
 46.27     497.00
 46.37     530.00
 46.47     491.00
 46.57     463.32
 46.67     483.93
 46.77     481.00
 46.87     503.00
 46.97     493.00
 47.07     533.76
 47.17     453.00
 47.27     498.00
 47.37     505.00
 47.47     501.67
 47.57     568.00
 47.67     553.00
 47.77     564.00
 47.87     531.74
 47.97     594.00
 48.07     538.00
 48.17     570.00
 48.27     592.40
 48.37     509.01
 48.47     497.21
 48.57     516.00
 48.67     510.00
 48.77     495.00
 48.87     531.00
 48.97     555.00
 49.07     509.00
 49.17     618.31
 49.27     635.00
 49.37     619.30
 49.47     728.00
 49.57     709.78
 49.67     840.24
 49.77    1006.32
 49.87    1375.05
 49.97    1816.00
 50.07    2142.00
 50.17    2456.00
 50.27    2515.00
 50.37    2337.86
 50.47    1982.15
 50.57    1604.60
 50.67    1222.98
 50.77     879.00
 50.87     795.21
 50.97     705.56
 51.07     628.00
 51.17     641.00
 51.27     632.00
 51.37     537.75
 51.47     563.00
 51.57     562.00
 51.67     559.00
 51.77     584.00
 51.87     488.39
 51.97     536.61
 52.07     553.00
 52.17     551.00
 52.27     513.13
 52.37     523.00
 52.47     529.00
 52.57     499.37
 52.67     553.00
 52.77     590.00
 52.87     631.00
 52.97     593.86
 53.07     722.87
 53.17     838.49
 53.27     970.00
 53.37    1141.00
 53.47    1129.60
 53.57    1238.00
 53.67    1138.31
 53.77    1076.00
 53.87     891.00
 53.97     861.27
 54.07     697.00
 54.17     655.74
 54.27     632.00
 54.37     539.00
 54.47     617.00
 54.57     582.00
 54.67     581.65
 54.77     511.00
 54.87     578.00
 54.97     570.09
 55.07     573.00
 55.17     530.00
 55.27     560.62
 55.37     560.00
 55.47     542.00
 55.57     519.00
 55.67     586.00
 55.77     571.47
 55.87     591.00
 55.97     549.09
 56.07     630.00
 56.17     665.00
 56.27     741.00
 56.37     956.00
 56.47    1343.28
 56.57    1638.00
 56.67    1995.00
 56.77    2305.74
 56.87    2525.00
 56.97    2660.43
 57.07    2459.40
 57.17    2290.00
 57.27    1823.00
 57.37    1445.00
 57.47    1126.00
 57.57     923.00
 57.67     737.00
 57.77     696.00
 57.87     714.00
 57.97     679.23
 58.07     649.00
 58.17     718.13
 58.27     743.00
 58.37     856.51
 58.47     894.00
 58.57     989.00
 58.67    1201.00
 58.77    1325.76
 58.87    1482.27
 58.97    1599.01
 59.07    1633.00
 59.17    1660.00
 59.27    1537.00
 59.37    1359.82
 59.47    1331.00
 59.57    1122.51
 59.67    1129.00
 59.77    1179.42
 59.87    1211.93
 59.97    1164.70
 60.07    1357.23
 60.17    1520.00
 60.27    1491.35
 60.37    1608.00
 60.47    1453.28
 60.57    1374.44
 60.67    1126.79
 60.77     971.00
 60.87     826.00
 60.97     699.00
 61.07     659.00
 61.17     602.00
 61.27     620.00
 61.37     607.35
 61.47     699.00
 61.57     692.00
 61.67     779.38
 61.77     844.00
 61.87    1004.00
 61.97    1147.60
 62.07    1287.37
 62.17    1418.00
 62.27    1463.00
 62.37    1288.00
 62.47    1266.00
 62.57    1122.00
 62.67     943.00
 62.77     882.91
 62.87     732.00
 62.97     612.00
 63.07     650.70
 63.17     593.00
 63.27     615.00
 63.37     615.00
 63.47     509.86
 63.57     530.00
 63.67     601.37
 63.77     610.93
 63.87     573.00
 63.97     611.00
 64.07     637.97
 64.17     744.00
 64.27     820.00
 64.37     847.00
 64.47     923.00
 64.57     939.09
 64.67     944.07
 64.77    1003.00
 64.87     978.00
 64.97     909.00
 65.07     920.00
 65.17     825.00
 65.27     713.81
 65.37     723.00
 65.47     615.23
 65.57     594.00
 65.67     591.00
 65.77     556.00
 65.87     579.00
 65.97     518.00
 66.07     547.00
 66.17     597.00
 66.27     535.00
 66.37     510.00
 66.47     555.25
 66.57     561.59
 66.67     560.00
 66.77     535.00
 66.87     591.25
 66.97     548.45
 67.07     582.89
 67.17     658.02
 67.27     705.54
 67.37     838.32
 67.47     928.00
 67.57    1100.10
 67.67    1400.05
 67.77    1635.00
 67.87    1838.00
 67.97    2260.00
 68.07    2479.00
 68.17    2469.00
 68.27    2414.00
 68.37    2247.11
 68.47    1996.00
 68.57    1669.00
 68.67    1446.00
 68.77    1109.84
 68.87     982.00
 68.97     774.00
 69.07     758.00
 69.17     683.00
 69.27     665.00
 69.37     618.00
 69.47     609.68
 69.57     577.00
 69.67     595.52
 69.77     559.08
 69.87     566.48
 69.97     583.00
 70.07     616.00
 70.17     584.00
 70.27     518.00
 70.37     563.00
 70.47     550.00
 70.57     562.00
 70.67     534.00
 70.77     588.71
 70.87     553.00
 70.97     623.31
 71.07     659.00
 71.17     711.00
 71.27     721.00
 71.37     890.00
 71.47     900.00
 71.57    1134.00
 71.67    1354.00
 71.77    1515.52
 71.87    1664.00
 71.97    1845.00
 72.07    1940.00
 72.17    1893.00
 72.27    1815.86
 72.37    1848.00
 72.47    1583.00
 72.57    1537.00
 72.67    1323.00
 72.77    1174.00
 72.87    1069.00
 72.97     984.00
 73.07     980.60
 73.17     841.30
 73.27     820.07
 73.37     721.00
 73.47     699.00
 73.57     631.00
 73.67     638.00
 73.77     563.00
 73.87     600.00
 73.97     558.00
 74.07     596.00
 74.17     556.00
 74.27     608.00
 74.37     547.00
 74.47     548.60
 74.57     621.00
 74.67     666.00
 74.77     632.00
 74.87     656.00
 74.97     620.00
 75.07     511.27
 75.17     548.00
 75.27     552.00
 75.37     553.00
 75.47     501.80
 75.57     541.00
 75.67     564.00
 75.77     560.33
 75.87     579.60
 75.97     557.95
 76.07     599.00
 76.17     666.00
 76.27     608.00
 76.37     658.00
 76.47     714.74
 76.57     649.00
 76.67     737.60
 76.77     684.00
 76.87     626.49
 76.97     685.21
 77.07     660.00
 77.17     651.03
 77.27     591.00
 77.37     594.00
 77.47     579.57
 77.57     564.65
 77.67     530.00
 77.77     493.00
 77.87     545.00
 77.97     537.43
 78.07     528.00
 78.17     509.42
 78.27     534.00
 78.37     497.42
 78.47     515.00
 78.57     481.00
 78.67     538.00
 78.77     511.00
 78.87     524.00
 78.97     511.00
 79.07     549.00
 79.17     486.00
 79.27     490.14
 79.37     514.00
 79.47     526.00
 79.57     535.20
 79.67     521.00
 79.77     516.20
 79.87     528.00
 79.97     529.00
 80.07     503.00
 80.17     561.96
 80.27     547.07
 80.37     537.00
 80.47     581.00
 80.57     602.55
 80.67     572.32
 80.77     626.50
 80.87     623.00
 80.97     682.59
 81.07     673.81
 81.17     746.00
 81.27     684.15
 81.37     777.87
 81.47     810.00
 81.57     763.37
 81.67     823.00
 81.77     799.00
 81.87     663.89
 81.97     725.00
 82.07     672.21
 82.17     637.00
 82.27     652.00
 82.37     613.17
 82.47     560.05
 82.57     602.00
 82.67     554.67
 82.77     585.00
 82.87     543.00
 82.97     517.94
 83.07     590.59
 83.17     579.00
 83.27     520.28
 83.37     503.53
 83.47     587.31
 83.57     543.00
 83.67     550.00
 83.77     525.14
 83.87     551.00
 83.97     507.00
 84.07     592.92
 84.17     560.00
 84.27     604.44
 84.37     591.00
 84.47     556.00
 84.57     560.00
 84.67     547.00
 84.77     549.00
 84.87     530.00
 84.97     520.00
 85.07     459.00
 85.17     489.00
 85.27     508.28
 85.37     530.00
 85.47     517.00
 85.57     538.50
 85.67     520.00
 85.77     503.57
 85.87     486.02
 85.97     529.00
 86.07     539.00
 86.17     524.26
 86.27     499.51
 86.37     529.18
 86.47     531.00
 86.57     587.32
 86.67     551.47
 86.77     541.00
 86.87     531.91
 86.97     595.00
 87.07     585.00
 87.17     631.00
 87.27     659.00
 87.37     640.50
 87.47     639.74
 87.57     633.09
 87.67     656.00
 87.77     576.97
 87.87     648.67
 87.97     647.82
 88.07     580.29
 88.17     577.00
 88.27     562.00
 88.37     602.00
 88.47     547.54
 88.57     514.00
 88.67     536.99
 88.77     573.00
 88.87     579.27
 88.97     634.00
 89.07     606.05
 89.17     594.00
 89.27     591.82
 89.37     625.00
 89.47     524.00
 89.57     600.00
 89.67     638.15
 89.77     594.00
 89.87     619.84
 89.97     578.75
 90.07     576.00
 90.17     507.00
 90.27     541.16
 90.37     536.00
 90.47     537.25
 90.57     495.02
 90.67     549.89
 90.77     540.00
 90.87     488.00
 90.97     532.31
 91.07     526.00
 91.17     486.00
 91.27     521.48
 91.37     506.00
 91.47     531.00
 91.57     482.93
 91.67     542.00
 91.77     540.00
 91.87     523.00
 91.97     551.00
 92.07     523.00
 92.17     553.00
 92.27     564.00
 92.37     539.03
 92.47     609.95
 92.57     589.42
 92.67     682.48
 92.77     688.00
 92.87     736.00
 92.97     768.00
 93.07     691.00
 93.17     774.48
 93.27     765.95
 93.37     751.00
 93.47     764.66
 93.57     752.20
 93.67     857.01
 93.77     855.00
 93.87     776.90
 93.97     824.00
 94.07     841.48
 94.17     847.00
 94.27     846.00
 94.37     839.24
 94.47     838.00
 94.57     882.00
 94.67     842.00
 94.77     942.00
 94.87     900.00
 94.97     860.64
 95.07     951.00
 95.17     834.00
 95.27     867.00
 95.37     827.00
 95.47     767.00
 95.57     788.00
 95.67     768.00
 95.77     702.00
 95.87     668.00
 95.97     697.00
 96.07     713.74
 96.17     645.67
 96.27     676.00
 96.37     725.00
 96.47     794.00
 96.57     809.00
 96.67     865.00
 96.77     865.00
 96.87     952.00
 96.97    1056.00
 97.07    1115.00
 97.17    1254.05
 97.27    1239.00
 97.37    1398.18
 97.47    1356.00
 97.57    1357.42
 97.67    1476.00
 97.77    1427.00
 97.87    1481.00
 97.97    1402.00
 98.07    1253.37
 98.17    1303.00
 98.27    1098.66
 98.37    1073.00
 98.47     958.89
 98.57     959.86
 98.67     917.00
 98.77     815.00
 98.87     830.00
 98.97     830.93
 99.07     802.00
 99.17     803.00
 99.27     833.00
 99.37     870.00
 99.47     932.00
 99.57     968.00
 99.67    1098.54
 99.77    1146.00
 99.87    1225.00
 99.97    1446.64
100.07    1539.00
100.17    1652.00
100.27    1763.67
100.37    1819.16
100.47    1932.57
100.57    2024.03
100.67    2139.77
100.77    2016.65
100.87    2013.33
100.97    2133.06
101.07    2123.00
101.17    1973.50
101.27    1931.72
101.37    1836.00
101.47    1826.61
101.57    1654.00
101.67    1624.00
101.77    1480.00
101.87    1413.00
101.97    1314.73
102.07    1268.00
102.17    1181.00
102.27    1178.52
102.37    1156.50
102.47    1189.56
102.57    1122.00
102.67    1075.00
102.77    1092.00
102.87    1071.00
102.97    1045.63
103.07     940.00
103.17     906.54
103.27     825.45
103.37     822.90
103.47     801.00
103.57     753.54
103.67     690.76
103.77     614.00
103.87     656.64
103.97     637.04
104.07     633.00
104.17     572.00
104.27     595.00
104.37     586.00
104.47     552.00
104.57     496.57
104.67     514.00
104.77     512.00
104.87     561.00
104.97     531.00
105.07     525.00
105.17     562.19
105.27     494.97
105.37     531.00
105.47     559.52
105.57     518.00
105.67     540.59
105.77     488.02
105.87     499.86
105.97     531.00
106.07     548.00
106.17     567.00
106.27     558.00
106.37     581.76
106.47     558.37
106.57     590.82
106.67     613.27
106.77     586.37
106.87     637.00
106.97     667.00
107.07     662.00
107.17     658.00
107.27     654.00
107.37     695.85
107.47     695.42
107.57     703.31
107.67     656.00
107.77     671.85
107.87     642.00
107.97     658.00
108.07     688.00
108.17     682.00
108.27     630.00
108.37     640.00
108.47     681.00
108.57     667.01
108.67     641.00
108.77     657.40
108.87     640.81
108.97     648.00
109.07     641.52
109.17     663.00
109.27     661.28
109.37     670.73
109.47     675.00
109.57     610.00
109.67     629.00
109.77     616.00
109.87     595.00
109.97     582.91
110.07     574.53
110.17     626.00
110.27     567.00
110.37     575.45
110.47     549.00
110.57     535.74
110.67     548.00
110.77     505.90
110.87     557.00
110.97     543.70
111.07     562.36
111.17     507.97
111.27     542.00
111.37     522.00
111.47     498.87
111.57     504.86
111.67     523.00
111.77     541.74
111.87     517.00
111.97     590.00
112.07     541.00
112.17     529.47
112.27     528.42
112.37     534.00
112.47     559.00
112.57     595.00
112.67     556.88
112.77     595.00
112.87     646.00
112.97     630.32
113.07     615.22
113.17     626.00
113.27     747.14
113.37     696.00
113.47     743.00
113.57     788.00
113.67     830.00
113.77     900.00
113.87     931.00
113.97     916.00
114.07    1006.20
114.17    1117.89
114.27    1090.39
114.37    1196.00
114.47    1332.87
114.57    1435.81
114.67    1479.00
114.77    1582.00
114.87    1826.00
114.97    1913.00
115.07    2056.69
115.17    2305.08
115.27    2440.72
115.37    2913.77
115.47    3014.88
115.57    3431.99
115.67    3733.00
115.77    4207.43
115.87    4432.65
115.97    4902.33
116.07    5170.00
116.17    5458.00
116.27    6165.07
116.37    6394.00
116.47    6789.41
116.57    7011.00
116.67    6939.94
116.77    7252.00
116.87    7152.00
116.97    7017.00
117.07    7043.00
117.17    6670.58
117.27    6432.00
117.37    6082.16
117.47    5527.00
117.57    5024.00
117.67    4944.66
117.77    4335.53
117.87    4132.00
117.97    3831.00
118.07    3244.92
118.17    3104.00
118.27    2699.00
118.37    2338.00
118.47    2114.85
118.57    1813.49
118.67    1551.99
118.77    1505.29
118.87    1250.00
118.97    1128.00
119.07    1055.00
119.17     982.00
119.27     858.00
119.37     850.00
119.47     775.00
119.57     714.00
119.67     713.99
119.77     662.84
119.87     667.83
119.97     650.99
120.07     604.00
120.17     621.00
120.27     614.00
120.37     532.00
120.47     615.00
120.57     580.00
120.67     582.84
120.77     560.00
120.87     528.00
120.97     538.00
121.07     594.48
121.17     550.69
121.27     534.00
121.37     527.00
121.47     540.82
121.57     573.00
121.67     593.00
121.77     559.49
121.87     554.77
121.97     543.70
122.07     591.00
122.17     553.93
122.27     624.00
122.37     586.82
122.47     650.08
122.57     589.00
122.67     608.00
122.77     665.20
122.87     678.00
122.97     631.00
123.07     639.00
123.17     652.00
123.27     662.00
123.37     644.00
123.47     607.00
123.57     681.00
123.67     643.00
123.77     596.00
123.87     619.00
123.97     622.00
124.07     643.87
124.17     588.00
124.27     630.00
124.37     602.00
124.47     576.00
124.57     573.20
124.67     608.00
124.77     624.90
124.87     570.25
124.97     589.58
