  9.97     748.00
 10.07     695.00
 10.17     678.84
 10.27     725.96
 10.37     708.00
 10.47     727.00
 10.57     670.98
 10.67     674.95
 10.77     675.41
 10.87     714.00
 10.97     695.00
 11.07     710.00
 11.17     731.23
 11.27     700.00
 11.37     709.45
 11.47     737.06
 11.57     691.00
 11.67     792.00
 11.77     729.00
 11.87     746.00
 11.97     791.04
 12.07     819.00
 12.17     881.00
 12.27     754.12
 12.37     782.56
 12.47     828.00
 12.57     753.47
 12.67     689.46
 12.77     696.46
 12.87     672.52
 12.97     630.00
 13.07     705.56
 13.17     732.00
 13.27     677.00
 13.37     633.00
 13.47     706.00
 13.57     718.63
 13.67     641.46
 13.77     674.00
 13.87     715.00
 13.97     700.00
 14.07     701.76
 14.17     683.00
 14.27     665.00
 14.37     679.00
 14.47     663.00
 14.57     636.00
 14.67     660.00
 14.77     672.00
 14.87     619.00
 14.97     619.00
 15.07     665.00
 15.17     641.00
 15.27     595.00
 15.37     649.98
 15.47     642.00
 15.57     670.00
 15.67     697.00
 15.77     617.13
 15.87     656.00
 15.97     623.00
 16.07     657.00
 16.17     619.29
 16.27     666.00
 16.37     684.66
 16.47     663.61
 16.57     634.00
 16.67     664.44
 16.77     592.00
 16.87     648.00
 16.97     609.77
 17.07     644.54
 17.17     644.00
 17.27     659.15
 17.37     682.77
 17.47     604.49
 17.57     601.00
 17.67     676.08
 17.77     676.00
 17.87     668.19
 17.97     643.00
 18.07     598.00
 18.17     601.00
 18.27     649.91
 18.37     641.00
 18.47     633.67
 18.57     623.13
 18.67     681.00
 18.77     661.00
 18.87     619.00
 18.97     653.05
 19.07     680.53
 19.17     650.00
 19.27     624.00
 19.37     676.00
 19.47     636.39
 19.57     632.00
 19.67     600.00
 19.77     653.00
 19.87     595.00
 19.97     593.59
 20.07     590.16
 20.17     586.00
 20.27     600.00
 20.37     653.42
 20.47     637.00
 20.57     673.16
 20.67     606.00
 20.77     617.00
 20.87     577.00
 20.97     601.00
 21.07     584.00
 21.17     600.00
 21.27     603.00
 21.37     614.94
 21.47     633.42
 21.57     642.00
 21.67     596.01
 21.77     599.00
 21.87     609.00
 21.97     664.98
 22.07     615.00
 22.17     573.00
 22.27     652.39
 22.37     611.00
 22.47     633.35
 22.57     602.69
 22.67     613.00
 22.77     643.00
 22.87     642.00
 22.97     592.00
 23.07     600.00
 23.17     579.00
 23.27     671.00
 23.37     573.00
 23.47     608.00
 23.57     612.24
 23.67     640.00
 23.77     681.00
 23.87     645.61
 23.97     637.00
 24.07     579.65
 24.17     617.71
 24.27     621.00
 24.37     637.00
 24.47     665.23
 24.57     654.00
 24.67     676.00
 24.77     650.00
 24.87     659.27
 24.97     711.71
 25.07     757.00
 25.17     731.32
 25.27     666.00
 25.37     672.00
 25.47     616.00
 25.57     675.00
 25.67     646.00
 25.77     618.00
 25.87     625.74
 25.97     645.00
 26.07     607.00
 26.17     656.70
 26.27     628.00
 26.37     642.00
 26.47     631.79
 26.57     626.00
 26.67     614.00
 26.77     621.47
 26.87     678.00
 26.97     659.59
 27.07     668.00
 27.17     725.00
 27.27     722.00
 27.37     673.56
 27.47     777.85
 27.57     778.00
 27.67     785.77
 27.77     911.26
 27.87    1058.00
 27.97    1266.00
 28.07    1963.00
 28.17    3099.00
 28.27    5226.68
 28.37    7064.00
 28.47    7825.00
 28.57    7223.00
 28.67    5224.42
 28.77    3810.60
 28.87    3245.00
 28.97    3586.42
 29.07    4212.00
 29.17    4466.00
 29.27    3901.30
 29.37    2974.00
 29.47    2123.00
 29.57    1516.36
 29.67    1156.00
 29.77     951.00
 29.87     851.73
 29.97     813.00
 30.07     758.80
 30.17     703.69
 30.27     716.00
 30.37     653.96
 30.47     725.00
 30.57     685.25
 30.67     678.00
 30.77     716.66
 30.87     762.00
 30.97     769.00
 31.07     740.17
 31.17     736.88
 31.27     808.00
 31.37     780.00
 31.47     761.00
 31.57     704.34
 31.67     662.00
 31.77     663.00
 31.87     632.00
 31.97     584.60
 32.07     668.98
 32.17     662.00
 32.27     654.29
 32.37     625.00
 32.47     625.00
 32.57     606.00
 32.67     597.71
 32.77     628.00
 32.87     613.00
 32.97     600.00
 33.07     569.90
 33.17     652.00
 33.27     612.00
 33.37     647.00
 33.47     639.18
 33.57     685.92
 33.67     654.00
 33.77     732.00
 33.87     785.58
 33.97     863.00
 34.07     978.00
 34.17    1152.85
 34.27    1273.07
 34.37    1238.63
 34.47    1197.00
 34.57    1007.65
 34.67     867.00
 34.77     749.00
 34.87     681.31
 34.97     694.00
 35.07     666.00
 35.17     657.00
 35.27     579.62
 35.37     672.00
 35.47     616.82
 35.57     598.00
 35.67     622.00
 35.77     562.66
 35.87     561.00
 35.97     577.00
 36.07     558.11
 36.17     592.52
 36.27     581.00
 36.37     585.00
 36.47     600.34
 36.57     599.00
 36.67     610.00
 36.77     574.00
 36.87     635.93
 36.97     589.00
 37.07     612.00
 37.17     591.00
 37.27     639.72
 37.37     639.23
 37.47     606.00
 37.57     617.81
 37.67     634.00
 37.77     594.09
 37.87     689.50
 37.97     656.00
 38.07     690.00
 38.17     750.00
 38.27     743.00
 38.37     686.00
 38.47     733.00
 38.57     685.59
 38.67     714.04
 38.77     602.00
 38.87     612.00
 38.97     620.00
 39.07     571.00
 39.17     625.00
 39.27     598.00
 39.37     553.00
 39.47     580.00
 39.57     603.00
 39.67     578.83
 39.77     541.57
 39.87     596.00
 39.97     630.00
 40.07     581.00
 40.17     587.55
 40.27     558.61
 40.37     644.00
 40.47     598.96
 40.57     622.23
 40.67     586.89
 40.77     539.00
 40.87     580.00
 40.97     596.00
 41.07     629.96
 41.17     624.77
 41.27     624.10
 41.37     624.00
 41.47     586.00
 41.57     574.00
 41.67     543.00
 41.77     573.00
 41.87     559.00
 41.97     553.90
 42.07     634.42
 42.17     609.56
 42.27     577.40
 42.37     617.00
 42.47     605.91
 42.57     587.00
 42.67     604.00
 42.77     680.93
 42.87     669.00
 42.97     653.00
 43.07     633.00
 43.17     669.00
 43.27     658.56
 43.37     675.00
 43.47     665.63
 43.57     637.00
 43.67     584.00
 43.77     633.00
 43.87     591.05
 43.97     585.00
 44.07     572.00
 44.17     592.00
 44.27     623.61
 44.37     598.00
 44.47     569.00
 44.57     590.00
 44.67     590.78
 44.77     590.00
 44.87     598.38
 44.97     569.55
 45.07     580.00
 45.17     629.00
 45.27     559.07
 45.37     572.84
 45.47     559.00
 45.57     674.00
 45.67     546.99
 45.77     627.00
 45.87     609.00
 45.97     591.00
 46.07     607.00
 46.17     572.00
 46.27     571.00
 46.37     580.72
 46.47     578.00
 46.57     603.00
 46.67     615.91
 46.77     585.00
 46.87     582.00
 46.97     630.00
 47.07     651.00
 47.17     595.67
 47.27     642.00
 47.37     604.00
 47.47     592.00
 47.57     598.00
 47.67     629.00
 47.77     590.52
 47.87     660.00
 47.97     646.00
 48.07     643.00
 48.17     662.00
 48.27     670.00
 48.37     691.07
 48.47     676.61
 48.57     716.52
 48.67     642.00
 48.77     584.00
 48.87     603.00
 48.97     662.00
 49.07     615.11
 49.17     682.03
 49.27     654.00
 49.37     633.17
 49.47     630.00
 49.57     642.86
 49.67     740.80
 49.77     694.54
 49.87     828.00
 49.97     962.00
 50.07    1265.37
 50.17    1500.00
 50.27    1969.00
 50.37    2539.00
 50.47    3008.81
 50.57    3106.00
 50.67    2975.50
 50.77    2623.57
 50.87    2159.00
 50.97    1689.00
 51.07    1342.00
 51.17    1041.00
 51.27     942.06
 51.37     827.00
 51.47     786.00
 51.57     689.55
 51.67     694.30
 51.77     699.00
 51.87     722.00
 51.97     722.50
 52.07     732.00
 52.17     710.00
 52.27     719.27
 52.37     654.00
 52.47     698.00
 52.57     695.00
 52.67     667.00
 52.77     662.35
 52.87     633.36
 52.97     676.61
 53.07     640.77
 53.17     684.38
 53.27     741.50
 53.37     789.00
 53.47     893.00
 53.57     993.00
 53.67    1078.00
 53.77    1229.95
 53.87    1269.00
 53.97    1262.00
 54.07    1278.76
 54.17    1212.00
 54.27    1072.87
 54.37     979.00
 54.47     854.00
 54.57     800.00
 54.67     727.00
 54.77     692.00
 54.87     673.00
 54.97     728.00
 55.07     690.23
 55.17     679.00
 55.27     639.00
 55.37     612.14
 55.47     635.00
 55.57     672.71
 55.67     665.00
 55.77     666.00
 55.87     658.00
 55.97     676.00
 56.07     684.71
 56.17     718.85
 56.27     780.00
 56.37     749.83
 56.47     835.39
 56.57     863.00
 56.67    1093.00
 56.77    1274.00
 56.87    1535.00
 56.97    1888.00
 57.07    2211.00
 57.17    2498.00
 57.27    2569.78
 57.37    2831.00
 57.47    2555.00
 57.57    2333.58
 57.67    1976.00
 57.77    1567.00
 57.87    1394.02
 57.97    1141.00
 58.07    1000.00
 58.17     925.63
 58.27     819.83
 58.37     788.00
 58.47     760.00
 58.57     784.00
 58.67     823.00
 58.77     876.40
 58.87     985.12
 58.97    1054.50
 59.07    1148.00
 59.17    1224.85
 59.27    1395.00
 59.37    1327.00
 59.47    1341.00
 59.57    1325.00
 59.67    1301.00
 59.77    1261.00
 59.87    1210.85
 59.97    1265.39
 60.07    1235.00
 60.17    1288.00
 60.27    1426.00
 60.37    1374.52
 60.47    1558.00
 60.57    1567.53
 60.67    1681.00
 60.77    1587.00
 60.87    1639.00
 60.97    1462.00
 61.07    1310.00
 61.17    1050.00
 61.27     946.28
 61.37     847.00
 61.47     780.00
 61.57     785.00
 61.67     780.00
 61.77     817.00
 61.87     893.30
 61.97     933.00
 62.07     993.00
 62.17    1171.00
 62.27    1280.00
 62.37    1451.00
 62.47    1562.00
 62.57    1786.00
 62.67    1617.00
 62.77    1771.06
 62.87    1629.63
 62.97    1370.00
 63.07    1231.66
 63.17    1197.77
 63.27    1016.77
 63.37     917.00
 63.47     794.00
 63.57     772.00
 63.67     791.00
 63.77     715.05
 63.87     722.00
 63.97     674.00
 64.07     723.00
 64.17     724.00
 64.27     814.00
 64.37     734.70
 64.47     872.42
 64.57     885.00
 64.67    1011.00
 64.77    1152.00
 64.87    1166.07
 64.97    1335.76
 65.07    1479.84
 65.17    1447.18
 65.27    1630.00
 65.37    1548.00
 65.47    1413.00
 65.57    1254.28
 65.67    1195.00
 65.77    1072.00
 65.87     976.44
 65.97     940.55
 66.07     895.00
 66.17     833.19
 66.27     765.50
 66.37     746.77
 66.47     690.35
 66.57     745.26
 66.67     695.00
 66.77     659.86
 66.87     742.23
 66.97     675.34
 67.07     682.00
 67.17     679.63
 67.27     670.75
 67.37     754.00
 67.47     761.00
 67.57     791.69
 67.67     837.59
 67.77     918.00
 67.87    1116.73
 67.97    1154.00
 68.07    1334.92
 68.17    1631.29
 68.27    1859.48
 68.37    2035.00
 68.47    2267.95
 68.57    2576.00
 68.67    2615.00
 68.77    2519.00
 68.87    2401.00
 68.97    2184.00
 69.07    1910.90
 69.17    1663.00
 69.27    1410.00
 69.37    1227.00
 69.47    1084.00
 69.57     941.00
 69.67     867.00
 69.77     802.71
 69.87     805.12
 69.97     768.57
 70.07     749.00
 70.17     660.13
 70.27     689.00
 70.37     700.00
 70.47     715.00
 70.57     684.70
 70.67     681.00
 70.77     662.00
 70.87     695.17
 70.97     606.00
 71.07     706.00
 71.17     661.29
 71.27     717.00
 71.37     721.00
 71.47     713.00
 71.57     855.00
 71.67     837.00
 71.77     917.00
 71.87    1029.55
 71.97    1133.17
 72.07    1262.00
 72.17    1474.00
 72.27    1581.00
 72.37    1817.96
 72.47    1958.22
 72.57    2002.68
 72.67    1941.00
 72.77    1932.00
 72.87    1835.00
 72.97    1635.21
 73.07    1467.00
 73.17    1345.00
 73.27    1269.11
 73.37    1013.12
 73.47    1005.00
 73.57     848.16
 73.67     833.00
 73.77     780.00
 73.87     766.00
 73.97     725.00
 74.07     641.37
 74.17     719.00
 74.27     703.28
 74.37     689.05
 74.47     626.00
 74.57     665.00
 74.67     649.00
 74.77     645.00
 74.87     703.60
 74.97     664.00
 75.07     636.00
 75.17     679.46
 75.27     703.00
 75.37     734.00
 75.47     700.19
 75.57     671.92
 75.67     671.00
 75.77     614.71
 75.87     665.00
 75.97     690.00
 76.07     703.00
 76.17     688.00
 76.27     713.94
 76.37     719.00
 76.47     687.89
 76.57     804.01
 76.67     792.00
 76.77     851.11
 76.87     869.00
 76.97     953.00
 77.07    1010.00
 77.17    1025.00
 77.27     983.00
 77.37     991.00
 77.47     932.65
 77.57     927.00
 77.67     869.00
 77.77     831.00
 77.87     784.00
 77.97     795.31
 78.07     717.71
 78.17     725.04
 78.27     629.42
 78.37     634.00
 78.47     645.00
 78.57     647.00
 78.67     588.00
 78.77     628.00
 78.87     638.00
 78.97     570.29
 79.07     617.00
 79.17     574.81
 79.27     619.77
 79.37     568.68
 79.47     610.00
 79.57     626.00
 79.67     616.00
 79.77     650.00
 79.87     559.00
 79.97     652.90
 80.07     618.00
 80.17     619.00
 80.27     620.05
 80.37     626.00
 80.47     664.06
 80.57     687.03
 80.67     711.00
 80.77     774.24
 80.87     810.11
 80.97     814.15
 81.07     984.71
 81.17    1031.00
 81.27    1074.12
 81.37    1219.00
 81.47    1202.30
 81.57    1220.35
 81.67    1394.00
 81.77    1288.92
 81.87    1417.00
 81.97    1424.00
 82.07    1317.00
 82.17    1303.00
 82.27    1229.00
 82.37    1124.00
 82.47    1058.00
 82.57    1011.00
 82.67     935.48
 82.77     905.00
 82.87     772.00
 82.97     772.00
 83.07     750.00
 83.17     743.00
 83.27     666.00
 83.37     684.00
 83.47     653.00
 83.57     717.35
 83.67     676.86
 83.77     696.37
 83.87     622.00
 83.97     600.00
 84.07     618.39
 84.17     627.00
 84.27     623.00
 84.37     659.00
 84.47     654.00
 84.57     688.36
 84.67     653.00
 84.77     668.00
 84.87     622.00
 84.97     643.00
 85.07     628.00
 85.17     672.76
 85.27     625.30
 85.37     592.00
 85.47     584.00
 85.57     566.00
 85.67     594.73
 85.77     626.00
 85.87     587.00
 85.97     594.91
 86.07     584.01
 86.17     626.00
 86.27     616.48
 86.37     634.56
 86.47     633.00
 86.57     652.00
 86.67     623.43
 86.77     674.62
 86.87     624.00
 86.97     591.00
 87.07     689.00
 87.17     673.00
 87.27     709.00
 87.37     672.72
 87.47     661.00
 87.57     653.75
 87.67     733.14
 87.77     698.00
 87.87     673.58
 87.97     695.00
 88.07     773.00
 88.17     710.81
 88.27     695.59
 88.37     672.00
 88.47     702.19
 88.57     670.89
 88.67     718.71
 88.77     699.00
 88.87     685.00
 88.97     702.00
 89.07     626.42
 89.17     684.00
 89.27     688.44
 89.37     609.12
 89.47     678.29
 89.57     630.00
 89.67     634.00
 89.77     641.11
 89.87     680.00
 89.97     665.00
 90.07     648.50
 90.17     643.51
 90.27     651.00
 90.37     682.00
 90.47     635.98
 90.57     685.34
 90.67     645.00
 90.77     618.00
 90.87     625.88
 90.97     609.00
 91.07     662.43
 91.17     550.00
 91.27     600.00
 91.37     617.00
 91.47     613.34
 91.57     593.00
 91.67     595.00
 91.77     613.00
 91.87     602.06
 91.97     558.43
 92.07     590.80
 92.17     548.59
 92.27     587.63
 92.37     595.00
 92.47     602.00
 92.57     622.00
 92.67     612.00
 92.77     625.00
 92.87     651.00
 92.97     641.00
 93.07     620.91
 93.17     615.73
 93.27     684.00
 93.37     658.56
 93.47     731.00
 93.57     768.11
 93.67     756.00
 93.77     783.00
 93.87     732.00
 93.97     776.41
 94.07     807.60
 94.17     856.12
 94.27     818.00
 94.37     843.00
 94.47     861.00
 94.57     914.00
 94.67     901.75
 94.77     932.00
 94.87     931.00
 94.97     959.00
 95.07    1046.78
 95.17    1061.44
 95.27    1027.00
 95.37    1024.89
 95.47    1084.00
 95.57    1058.00
 95.67    1061.00
 95.77    1071.00
 95.87     966.83
 95.97     957.25
 96.07    1001.40
 96.17     929.00
 96.27     910.00
 96.37     902.00
 96.47     875.00
 96.57     847.00
 96.67     843.00
 96.77     811.00
 96.87     835.00
 96.97     875.00
 97.07     874.00
 97.17     829.65
 97.27     907.00
 97.37     978.64
 97.47    1057.53
 97.57    1050.00
 97.67    1086.31
 97.77    1171.84
 97.87    1257.62
 97.97    1357.00
 98.07    1466.75
 98.17    1420.74
 98.27    1568.00
 98.37    1607.73
 98.47    1590.00
 98.57    1600.34
 98.67    1598.00
 98.77    1491.11
 98.87    1462.00
 98.97    1482.00
 99.07    1345.00
 99.17    1258.00
 99.27    1224.69
 99.37    1141.00
 99.47    1160.76
 99.57    1019.00
 99.67     995.49
 99.77     995.00
 99.87     960.00
 99.97     970.00
100.07    1036.91
100.17    1052.00
100.27    1103.00
100.37    1151.70
100.47    1294.00
100.57    1319.21
100.67    1373.00
100.77    1485.29
100.87    1619.55
100.97    1710.00
101.07    1800.43
101.17    1895.00
101.27    1926.00
101.37    1935.40
101.47    2012.00
101.57    2051.00
101.67    2069.61
101.77    2060.00
101.87    2103.00
101.97    2081.05
102.07    2059.00
102.17    2000.00
102.27    1949.00
102.37    1869.59
102.47    1765.00
102.57    1754.09
102.67    1651.00
102.77    1537.00
102.87    1450.00
102.97    1429.00
103.07    1471.00
103.17    1308.00
103.27    1319.00
103.37    1360.24
103.47    1255.00
103.57    1283.00
103.67    1241.00
103.77    1273.43
103.87    1140.00
103.97    1084.00
104.07    1107.00
104.17    1053.00
104.27     939.00
104.37     961.00
104.47     897.00
104.57     832.14
104.67     860.00
104.77     774.11
104.87     726.51
104.97     781.92
105.07     774.00
105.17     781.00
105.27     639.39
105.37     695.22
105.47     637.00
105.57     623.00
105.67     647.00
105.77     612.46
105.87     626.00
105.97     565.69
106.07     642.00
106.17     647.00
106.27     580.24
106.37     608.00
106.47     618.00
106.57     649.17
106.67     674.00
106.77     624.00
106.87     633.00
106.97     657.00
107.07     651.00
107.17     693.69
107.27     716.32
107.37     657.08
107.47     739.00
107.57     717.00
107.67     682.00
107.77     731.00
107.87     784.00
107.97     795.00
108.07     761.00
108.17     750.00
108.27     758.51
108.37     824.25
108.47     808.60
108.57     745.00
108.67     798.89
108.77     770.00
108.87     745.10
108.97     735.00
109.07     757.00
109.17     824.00
109.27     798.35
109.37     804.00
109.47     824.91
109.57     745.30
109.67     751.22
109.77     723.00
109.87     727.00
109.97     733.00
110.07     776.00
110.17     751.00
110.27     801.40
110.37     815.60
110.47     742.26
110.57     762.00
110.67     771.00
110.77     707.45
110.87     707.00
110.97     698.00
111.07     686.00
111.17     650.00
111.27     704.00
111.37     679.00
111.47     698.36
111.57     643.00
111.67     628.37
111.77     690.00
111.87     608.00
111.97     628.00
112.07     608.03
112.17     584.83
112.27     630.00
112.37     589.84
112.47     621.00
112.57     643.00
112.67     623.00
112.77     617.00
112.87     578.98
112.97     668.00
113.07     567.00
113.17     609.00
113.27     584.00
113.37     596.00
113.47     630.00
113.57     622.48
113.67     616.00
113.77     642.00
113.87     640.00
113.97     626.45
114.07     602.00
114.17     657.00
114.27     667.00
114.37     678.04
114.47     635.00
114.57     664.24
114.67     740.00
114.77     800.88
114.87     779.00
114.97     826.00
115.07     875.83
115.17     913.11
115.27     951.00
115.37     985.00
115.47    1071.00
115.57    1164.09
115.67    1305.00
115.77    1511.00
115.87    1700.60
115.97    1815.00
116.07    2018.52
116.17    2445.00
116.27    2489.06
116.37    2838.00
116.47    3181.00
116.57    3645.00
116.67    3939.00
116.77    4370.85
116.87    4791.31
116.97    5213.65
117.07    5389.00
117.17    5729.00
117.27    6185.00
117.37    6495.18
117.47    6876.00
117.57    7130.00
117.67    7438.70
117.77    7494.00
117.87    7660.21
117.97    7424.09
118.07    7477.00
118.17    7255.00
118.27    6877.00
118.37    6864.00
118.47    6555.00
118.57    6132.00
118.67    5784.20
118.77    5433.00
118.87    5015.01
118.97    4781.57
119.07    4578.00
119.17    4157.00
119.27    3596.32
119.37    3312.00
119.47    3100.89
119.57    2797.00
119.67    2467.00
119.77    2277.41
119.87    1927.40
119.97    1893.00
120.07    1574.41
120.17    1551.00
120.27    1492.00
120.37    1369.00
120.47    1150.43
120.57    1151.00
120.67    1106.00
120.77    1017.00
120.87     937.01
120.97     932.00
121.07     856.00
121.17     851.00
121.27     807.00
121.37     793.00
121.47     814.83
121.57     773.00
121.67     763.01
121.77     708.00
121.87     707.00
121.97     705.00
122.07     715.00
122.17     630.00
122.27     653.00
122.37     710.00
122.47     678.00
122.57     731.00
122.67     670.00
122.77     659.18
122.87     703.98
122.97     675.00
123.07     750.00
123.17     687.81
123.27     704.82
123.37     774.86
123.47     710.00
123.57     758.00
123.67     777.00
123.77     782.31
123.87     767.00
123.97     759.00
124.07     801.00
124.17     763.00
124.27     793.00
124.37     806.00
124.47     752.00
124.57     751.00
124.67     808.66
124.77     814.32
124.87     783.00
124.97     824.00
