  9.97     560.30
 10.07     596.00
 10.17     573.00
 10.27     599.78
 10.37     610.00
 10.47     556.00
 10.57     540.06
 10.67     598.00
 10.77     534.99
 10.87     596.45
 10.97     593.00
 11.07     588.55
 11.17     594.85
 11.27     605.00
 11.37     558.31
 11.47     606.41
 11.57     561.81
 11.67     640.00
 11.77     632.00
 11.87     654.00
 11.97     696.00
 12.07     682.00
 12.17     701.99
 12.27     711.74
 12.37     678.40
 12.47     697.78
 12.57     599.00
 12.67     601.00
 12.77     583.00
 12.87     581.00
 12.97     533.00
 13.07     571.00
 13.17     547.00
 13.27     538.00
 13.37     578.00
 13.47     592.61
 13.57     582.00
 13.67     620.50
 13.77     526.75
 13.87     563.00
 13.97     527.75
 14.07     547.00
 14.17     580.52
 14.27     567.00
 14.37     569.55
 14.47     567.00
 14.57     553.06
 14.67     620.30
 14.77     599.00
 14.87     601.00
 14.97     537.00
 15.07     578.14
 15.17     611.55
 15.27     602.00
 15.37     594.00
 15.47     540.88
 15.57     579.00
 15.67     548.00
 15.77     556.00
 15.87     527.50
 15.97     580.00
 16.07     539.00
 16.17     556.00
 16.27     570.00
 16.37     513.00
 16.47     541.00
 16.57     559.00
 16.67     579.95
 16.77     591.41
 16.87     553.00
 16.97     546.25
 17.07     576.00
 17.17     572.00
 17.27     578.00
 17.37     554.00
 17.47     578.00
 17.57     547.00
 17.67     548.00
 17.77     554.00
 17.87     554.00
 17.97     507.00
 18.07     606.00
 18.17     531.50
 18.27     553.00
 18.37     538.00
 18.47     548.00
 18.57     575.00
 18.67     560.00
 18.77     516.00
 18.87     555.00
 18.97     594.58
 19.07     507.00
 19.17     539.00
 19.27     547.00
 19.37     548.00
 19.47     559.00
 19.57     557.68
 19.67     551.00
 19.77     527.41
 19.87     567.00
 19.97     561.00
 20.07     533.37
 20.17     515.00
 20.27     544.00
 20.37     596.00
 20.47     538.14
 20.57     529.00
 20.67     459.00
 20.77     553.64
 20.87     544.00
 20.97     559.00
 21.07     543.00
 21.17     588.00
 21.27     523.00
 21.37     562.00
 21.47     574.44
 21.57     508.00
 21.67     520.39
 21.77     570.00
 21.87     545.65
 21.97     540.00
 22.07     512.42
 22.17     547.59
 22.27     549.00
 22.37     544.00
 22.47     541.00
 22.57     549.00
 22.67     535.00
 22.77     552.00
 22.87     505.64
 22.97     568.40
 23.07     522.00
 23.17     543.00
 23.27     541.28
 23.37     566.00
 23.47     581.00
 23.57     501.08
 23.67     549.89
 23.77     549.00
 23.87     499.88
 23.97     504.17
 24.07     595.41
 24.17     572.65
 24.27     523.99
 24.37     575.00
 24.47     580.06
 24.57     619.00
 24.67     660.19
 24.77     609.00
 24.87     628.00
 24.97     591.31
 25.07     629.00
 25.17     578.00
 25.27     535.00
 25.37     549.47
 25.47     567.00
 25.57     538.83
 25.67     599.00
 25.77     563.00
 25.87     523.23
 25.97     518.00
 26.07     538.00
 26.17     559.05
 26.27     566.38
 26.37     571.00
 26.47     553.77
 26.57     556.00
 26.67     552.39
 26.77     575.22
 26.87     546.00
 26.97     517.78
 27.07     553.00
 27.17     574.00
 27.27     518.00
 27.37     507.86
 27.47     532.03
 27.57     562.72
 27.67     539.00
 27.77     593.00
 27.87     631.00
 27.97     669.50
 28.07     803.00
 28.17     851.67
 28.27    1025.93
 28.37     904.00
 28.47     757.00
 28.57     744.26
 28.67     660.00
 28.77     709.00
 28.87     793.00
 28.97     796.00
 29.07     819.59
 29.17     751.00
 29.27     688.06
 29.37     623.34
 29.47     582.00
 29.57     573.00
 29.67     572.00
 29.77     606.00
 29.87     609.00
 29.97     604.00
 30.07     579.00
 30.17     561.00
 30.27     534.00
 30.37     551.00
 30.47     576.05
 30.57     585.38
 30.67     559.00
 30.77     573.99
 30.87     631.00
 30.97     627.00
 31.07     602.67
 31.17     589.00
 31.27     555.68
 31.37     524.00
 31.47     556.00
 31.57     530.00
 31.67     516.00
 31.77     524.00
 31.87     494.83
 31.97     491.00
 32.07     532.00
 32.17     481.39
 32.27     564.79
 32.37     559.00
 32.47     593.00
 32.57     491.20
 32.67     568.32
 32.77     566.00
 32.87     513.62
 32.97     531.00
 33.07     590.00
 33.17     565.00
 33.27     530.00
 33.37     557.00
 33.47     551.09
 33.57     601.06
 33.67     573.00
 33.77     749.00
 33.87     887.00
 33.97     953.72
 34.07    1053.00
 34.17    1013.00
 34.27     920.00
 34.37     777.00
 34.47     689.88
 34.57     615.00
 34.67     562.00
 34.77     549.38
 34.87     530.00
 34.97     565.27
 35.07     538.00
 35.17     512.00
 35.27     481.77
 35.37     499.00
 35.47     533.48
 35.57     505.00
 35.67     532.00
 35.77     502.00
 35.87     544.40
 35.97     526.00
 36.07     517.00
 36.17     473.00
 36.27     516.00
 36.37     514.00
 36.47     503.00
 36.57     435.00
 36.67     457.00
 36.77     523.00
 36.87     544.51
 36.97     493.02
 37.07     484.39
 37.17     540.00
 37.27     525.00
 37.37     537.73
 37.47     536.11
 37.57     548.44
 37.67     531.00
 37.77     549.66
 37.87     514.00
 37.97     513.00
 38.07     510.00
 38.17     485.00
 38.27     512.00
 38.37     546.00
 38.47     483.98
 38.57     507.00
 38.67     550.44
 38.77     541.47
 38.87     555.00
 38.97     511.00
 39.07     466.00
 39.17     497.00
 39.27     485.77
 39.37     514.20
 39.47     521.00
 39.57     553.01
 39.67     493.00
 39.77     461.67
 39.87     505.00
 39.97     519.80
 40.07     525.81
 40.17     481.00
 40.27     467.00
 40.37     468.00
 40.47     525.54
 40.57     467.64
 40.67     490.00
 40.77     518.00
 40.87     442.00
 40.97     495.00
 41.07     473.36
 41.17     471.00
 41.27     514.00
 41.37     510.57
 41.47     503.00
 41.57     481.25
 41.67     541.63
 41.77     469.25
 41.87     511.53
 41.97     533.00
 42.07     478.00
 42.17     533.00
 42.27     515.00
 42.37     608.00
 42.47     623.23
 42.57     622.00
 42.67     586.00
 42.77     584.00
 42.87     536.00
 42.97     573.00
 43.07     535.66
 43.17     523.00
 43.27     476.00
 43.37     568.00
 43.47     553.01
 43.57     522.00
 43.67     480.33
 43.77     495.00
 43.87     538.00
 43.97     538.83
 44.07     495.00
 44.17     537.00
 44.27     548.00
 44.37     476.00
 44.47     480.00
 44.57     518.00
 44.67     475.00
 44.77     481.00
 44.87     496.00
 44.97     507.21
 45.07     542.50
 45.17     491.00
 45.27     476.00
 45.37     509.18
 45.47     529.00
 45.57     480.00
 45.67     520.00
 45.77     489.00
 45.87     575.00
 45.97     504.00
 46.07     459.25
 46.17     524.15
 46.27     505.08
 46.37     490.00
 46.47     513.19
 46.57     496.00
 46.67     521.00
 46.77     510.00
 46.87     504.00
 46.97     465.42
 47.07     499.00
 47.17     519.32
 47.27     506.39
 47.37     520.00
 47.47     503.52
 47.57     515.00
 47.67     564.00
 47.77     631.86
 47.87     615.61
 47.97     586.95
 48.07     543.54
 48.17     575.00
 48.27     551.25
 48.37     517.85
 48.47     554.00
 48.57     531.00
 48.67     518.00
 48.77     551.91
 48.87     506.00
 48.97     551.00
 49.07     543.00
 49.17     574.00
 49.27     642.00
 49.37     638.00
 49.47     653.61
 49.57     745.28
 49.67     898.00
 49.77    1144.16
 49.87    1470.46
 49.97    1924.00
 50.07    2214.48
 50.17    2501.03
 50.27    2499.00
 50.37    2271.00
 50.47    1941.00
 50.57    1435.00
 50.67    1145.04
 50.77     847.86
 50.87     653.00
 50.97     677.00
 51.07     622.00
 51.17     609.87
 51.27     600.75
 51.37     577.00
 51.47     527.79
 51.57     587.38
 51.67     574.00
 51.77     548.00
 51.87     491.12
 51.97     597.00
 52.07     573.09
 52.17     573.00
 52.27     571.42
 52.37     580.55
 52.47     588.00
 52.57     579.00
 52.67     605.27
 52.77     544.36
 52.87     579.17
 52.97     719.14
 53.07     860.00
 53.17     951.00
 53.27     978.80
 53.37    1157.00
 53.47    1179.00
 53.57    1187.00
 53.67    1069.00
 53.77     981.22
 53.87     828.00
 53.97     747.00
 54.07     680.00
 54.17     615.00
 54.27     571.98
 54.37     573.00
 54.47     597.00
 54.57     541.00
 54.67     502.00
 54.77     615.00
 54.87     583.56
 54.97     570.00
 55.07     526.00
 55.17     573.00
 55.27     549.00
 55.37     559.00
 55.47     577.00
 55.57     557.00
 55.67     572.39
 55.77     563.00
 55.87     570.50
 55.97     600.00
 56.07     687.60
 56.17     693.00
 56.27     923.00
 56.37    1128.00
 56.47    1420.00
 56.57    1776.00
 56.67    2106.00
 56.77    2518.00
 56.87    2681.00
 56.97    2633.00
 57.07    2356.98
 57.17    2111.00
 57.27    1671.00
 57.37    1330.00
 57.47    1068.00
 57.57     900.13
 57.67     717.16
 57.77     660.00
 57.87     658.25
 57.97     647.00
 58.07     691.00
 58.17     678.00
 58.27     770.00
 58.37     801.00
 58.47     937.00
 58.57    1068.00
 58.67    1208.00
 58.77    1310.00
 58.87    1492.00
 58.97    1559.00
 59.07    1601.49
 59.17    1543.00
 59.27    1414.05
 59.37    1342.00
 59.47    1200.09
 59.57    1184.00
 59.67    1144.00
 59.77    1215.00
 59.87    1204.00
 59.97    1370.00
 60.07    1446.02
 60.17    1526.00
 60.27    1619.00
 60.37    1570.67
 60.47    1373.00
 60.57    1208.00
 60.67    1029.00
 60.77     914.00
 60.87     731.00
 60.97     697.00
 61.07     649.52
 61.17     635.00
 61.27     646.00
 61.37     624.00
 61.47     737.00
 61.57     718.74
 61.67     883.00
 61.77     966.00
 61.87    1109.00
 61.97    1205.00
 62.07    1381.00
 62.17    1386.86
 62.27    1412.00
 62.37    1318.00
 62.47    1250.94
 62.57    1039.00
 62.67     859.00
 62.77     755.00
 62.87     715.00
 62.97     631.00
 63.07     641.00
 63.17     537.61
 63.27     580.00
 63.37     597.20
 63.47     566.00
 63.57     608.32
 63.67     578.00
 63.77     557.33
 63.87     608.14
 63.97     610.77
 64.07     670.83
 64.17     731.91
 64.27     860.00
 64.37     896.55
 64.47     952.03
 64.57    1002.44
 64.67    1057.88
 64.77    1008.60
 64.87     995.87
 64.97     931.00
 65.07     834.61
 65.17     833.99
 65.27     743.00
 65.37     652.00
 65.47     664.45
 65.57     583.00
 65.67     601.00
 65.77     583.00
 65.87     540.00
 65.97     564.00
 66.07     542.00
 66.17     550.00
 66.27     521.78
 66.37     568.64
 66.47     536.00
 66.57     590.00
 66.67     578.34
 66.77     589.13
 66.87     519.00
 66.97     616.00
 67.07     619.40
 67.17     698.00
 67.27     756.38
 67.37     893.00
 67.47    1108.00
 67.57    1301.00
 67.67    1455.06
 67.77    1840.00
 67.87    2041.00
 67.97    2257.00
 68.07    2404.00
 68.17    2559.00
 68.27    2314.00
 68.37    1988.25
 68.47    1820.00
 68.57    1495.00
 68.67    1248.00
 68.77    1005.34
 68.87     924.00
 68.97     782.00
 69.07     680.88
 69.17     695.00
 69.27     620.77
 69.37     534.00
 69.47     576.00
 69.57     604.25
 69.67     537.91
 69.77     565.00
 69.87     596.00
 69.97     546.00
 70.07     546.00
 70.17     564.00
 70.27     506.00
 70.37     561.68
 70.47     555.00
 70.57     565.72
 70.67     608.08
 70.77     544.36
 70.87     621.09
 70.97     649.00
 71.07     646.00
 71.17     686.00
 71.27     870.90
 71.37     911.49
 71.47    1110.94
 71.57    1313.82
 71.67    1450.00
 71.77    1552.00
 71.87    1827.26
 71.97    1814.00
 72.07    1984.35
 72.17    1779.39
 72.27    1752.00
 72.37    1664.00
 72.47    1505.03
 72.57    1273.00
 72.67    1123.00
 72.77    1119.09
 72.87     907.00
 72.97     809.00
 73.07     773.00
 73.17     717.00
 73.27     675.00
 73.37     583.00
 73.47     596.00
 73.57     613.00
 73.67     608.00
 73.77     588.01
 73.87     570.00
 73.97     613.59
 74.07     534.46
 74.17     618.34
 74.27     585.22
 74.37     586.00
 74.47     603.00
 74.57     619.04
 74.67     548.12
 74.77     516.69
 74.87     662.00
 74.97     539.07
 75.07     527.72
 75.17     574.00
 75.27     581.00
 75.37     544.00
 75.47     565.00
 75.57     587.98
 75.67     535.84
 75.77     565.00
 75.87     561.00
 75.97     589.00
 76.07     651.92
 76.17     646.00
 76.27     629.00
 76.37     737.00
 76.47     703.00
 76.57     713.00
 76.67     647.54
 76.77     733.00
 76.87     630.00
 76.97     629.04
 77.07     599.14
 77.17     626.00
 77.27     551.42
 77.37     543.00
 77.47     516.00
 77.57     528.00
 77.67     498.00
 77.77     529.79
 77.87     567.38
 77.97     491.59
 78.07     528.00
 78.17     541.41
 78.27     495.00
 78.37     536.89
 78.47     535.00
 78.57     499.00
 78.67     562.91
 78.77     502.99
 78.87     508.00
 78.97     472.00
 79.07     546.00
 79.17     535.16
 79.27     499.00
 79.37     553.00
 79.47     504.00
 79.57     515.00
 79.67     515.00
 79.77     492.95
 79.87     573.45
 79.97     534.00
 80.07     512.00
 80.17     565.00
 80.27     569.00
 80.37     596.89
 80.47     584.00
 80.57     616.43
 80.67     635.82
 80.77     669.73
 80.87     635.00
 80.97     744.98
 81.07     670.00
 81.17     750.00
 81.27     758.00
 81.37     736.42
 81.47     713.91
 81.57     730.40
 81.67     779.85
 81.77     722.13
 81.87     720.00
 81.97     706.00
 82.07     727.00
 82.17     666.00
 82.27     639.00
 82.37     615.62
 82.47     565.95
 82.57     559.51
 82.67     607.00
 82.77     592.00
 82.87     522.00
 82.97     565.00
 83.07     555.00
 83.17     531.00
 83.27     585.00
 83.37     540.00
 83.47     531.06
 83.57     481.00
 83.67     534.26
 83.77     584.00
 83.87     538.00
 83.97     595.00
 84.07     609.58
 84.17     567.00
 84.27     580.00
 84.37     534.00
 84.47     556.00
 84.57     524.00
 84.67     519.00
 84.77     532.73
 84.87     514.00
 84.97     548.00
 85.07     538.00
 85.17     557.00
 85.27     565.08
 85.37     533.00
 85.47     545.00
 85.57     529.38
 85.67     527.00
 85.77     521.70
 85.87     506.00
 85.97     530.00
 86.07     565.00
 86.17     553.43
 86.27     497.00
 86.37     559.00
 86.47     556.00
 86.57     544.84
 86.67     582.08
 86.77     562.35
 86.87     585.00
 86.97     594.00
 87.07     619.79
 87.17     654.00
 87.27     610.40
 87.37     618.00
 87.47     613.00
 87.57     645.30
 87.67     616.00
 87.77     649.00
 87.87     598.00
 87.97     597.00
 88.07     623.00
 88.17     582.53
 88.27     612.00
 88.37     620.00
 88.47     604.00
 88.57     576.00
 88.67     527.00
 88.77     534.78
 88.87     617.00
 88.97     643.00
 89.07     624.00
 89.17     572.00
 89.27     595.00
 89.37     609.00
 89.47     635.00
 89.57     591.00
 89.67     622.00
 89.77     592.22
 89.87     583.00
 89.97     567.81
 90.07     519.00
 90.17     527.00
 90.27     545.00
 90.37     539.62
 90.47     522.00
 90.57     511.00
 90.67     527.00
 90.77     485.00
 90.87     515.00
 90.97     567.88
 91.07     485.17
 91.17     533.00
 91.27     534.00
 91.37     514.17
 91.47     510.17
 91.57     484.21
 91.67     542.87
 91.77     578.97
 91.87     564.00
 91.97     551.00
 92.07     531.53
 92.17     579.00
 92.27     552.00
 92.37     626.93
 92.47     622.00
 92.57     643.00
 92.67     646.87
 92.77     627.13
 92.87     689.00
 92.97     736.70
 93.07     750.98
 93.17     725.55
 93.27     736.00
 93.37     777.00
 93.47     830.00
 93.57     849.95
 93.67     862.22
 93.77     786.00
 93.87     798.68
 93.97     864.57
 94.07     857.00
 94.17     859.00
 94.27     834.43
 94.37     895.70
 94.47     825.72
 94.57     952.00
 94.67     904.00
 94.77     884.00
 94.87     901.00
 94.97     925.00
 95.07     907.17
 95.17     865.00
 95.27     855.00
 95.37     839.17
 95.47     800.00
 95.57     760.62
 95.67     768.00
 95.77     664.33
 95.87     680.00
 95.97     686.47
 96.07     632.00
 96.17     708.26
 96.27     765.31
 96.37     789.00
 96.47     805.00
 96.57     847.00
 96.67     896.00
 96.77    1022.00
 96.87    1052.88
 96.97    1093.00
 97.07    1173.00
 97.17    1320.00
 97.27    1379.00
 97.37    1404.00
 97.47    1376.94
 97.57    1502.00
 97.67    1481.00
 97.77    1392.00
 97.87    1384.38
 97.97    1264.17
 98.07    1221.00
 98.17    1117.39
 98.27    1105.00
 98.37    1016.00
 98.47     951.00
 98.57     929.35
 98.67     745.00
 98.77     874.65
 98.87     754.00
 98.97     820.00
 99.07     837.00
 99.17     825.00
 99.27     848.00
 99.37     902.00
 99.47    1023.00
 99.57    1066.00
 99.67    1135.00
 99.77    1323.00
 99.87    1319.00
 99.97    1519.00
100.07    1551.40
100.17    1717.00
100.27    1896.39
100.37    1847.90
100.47    2039.00
100.57    2084.00
100.67    2119.00
100.77    2058.00
100.87    2054.00
100.97    2040.00
101.07    1893.00
101.17    1825.46
101.27    1790.00
101.37    1672.59
101.47    1599.00
101.57    1581.00
101.67    1402.00
101.77    1319.27
101.87    1325.37
101.97    1311.88
102.07    1152.21
102.17    1164.55
102.27    1136.00
102.37    1133.00
102.47    1057.67
102.57    1040.00
102.67    1056.53
102.77    1013.00
102.87    1020.00
102.97     993.00
103.07     896.00
103.17     886.00
103.27     804.00
103.37     789.00
103.47     801.21
103.57     787.16
103.67     724.59
103.77     687.00
103.87     639.48
103.97     652.93
104.07     582.00
104.17     605.00
104.27     609.21
104.37     592.00
104.47     579.00
104.57     521.89
104.67     535.36
104.77     530.29
104.87     549.00
104.97     518.89
105.07     572.00
105.17     546.60
105.27     554.38
105.37     503.62
105.47     550.63
105.57     509.00
105.67     544.00
105.77     604.00
105.87     516.00
105.97     609.16
106.07     559.00
106.17     580.40
106.27     588.00
106.37     557.00
106.47     551.00
106.57     598.42
106.67     625.00
106.77     614.00
106.87     631.00
106.97     624.00
107.07     722.59
107.17     706.00
107.27     698.00
107.37     689.00
107.47     762.86
107.57     699.34
107.67     748.99
107.77     698.00
107.87     675.58
107.97     749.05
108.07     652.64
108.17     711.00
108.27     718.00
108.37     702.40
108.47     717.93
108.57     663.46
108.67     646.00
108.77     698.43
108.87     670.00
108.97     678.16
109.07     696.00
109.17     653.10
109.27     665.00
109.37     652.00
109.47     673.00
109.57     682.77
109.67     581.24
109.77     656.00
109.87     634.00
109.97     616.00
110.07     536.11
110.17     612.00
110.27     523.74
110.37     557.00
110.47     586.11
110.57     560.00
110.67     565.00
110.77     572.11
110.87     587.00
110.97     520.00
111.07     536.00
111.17     587.64
111.27     515.53
111.37     579.00
111.47     528.51
111.57     561.00
111.67     534.07
111.77     505.02
111.87     546.00
111.97     568.00
112.07     596.00
112.17     553.00
112.27     580.00
112.37     546.00
112.47     573.66
112.57     582.00
112.67     595.00
112.77     621.00
112.87     665.00
112.97     644.00
113.07     681.00
113.17     741.00
113.27     655.66
113.37     706.00
113.47     804.00
113.57     725.00
113.67     798.00
113.77     865.00
113.87     917.00
113.97     932.25
114.07    1001.00
114.17    1095.77
114.27    1068.00
114.37    1169.00
114.47    1308.00
114.57    1484.00
114.67    1536.00
114.77    1718.23
114.87    1850.00
114.97    2190.00
115.07    2165.25
115.17    2590.01
115.27    2819.00
115.37    3089.00
115.47    3340.58
115.57    3853.80
115.67    4065.00
115.77    4590.00
115.87    5004.60
115.97    5145.00
116.07    5680.81
116.17    5998.00
116.27    6218.00
116.37    6560.48
116.47    6918.00
116.57    6987.65
116.67    6976.78
116.77    6945.00
116.87    6785.00
116.97    6639.02
117.07    6348.00
117.17    6142.12
117.27    5633.77
117.37    5290.00
117.47    4952.00
117.57    4617.00
117.67    4217.00
117.77    3971.61
117.87    3593.00
117.97    3197.00
118.07    2904.00
118.17    2644.00
118.27    2243.00
118.37    1980.51
118.47    1771.00
118.57    1574.00
118.67    1473.88
118.77    1202.79
118.87    1125.00
118.97    1007.00
119.07     957.13
119.17     952.49
119.27     806.00
119.37     755.61
119.47     693.64
119.57     696.00
119.67     653.00
119.77     636.00
119.87     604.44
119.97     679.41
120.07     580.27
120.17     584.00
120.27     616.21
120.37     564.09
120.47     574.00
120.57     599.61
120.67     574.64
120.77     558.00
120.87     532.00
120.97     597.00
121.07     567.00
121.17     556.29
121.27     546.61
121.37     595.00
121.47     619.08
121.57     567.00
121.67     594.54
121.77     645.47
121.87     632.00
121.97     616.00
122.07     593.81
122.17     629.50
122.27     601.69
122.37     601.49
122.47     591.41
122.57     643.00
122.67     628.00
122.77     591.19
122.87     694.00
122.97     649.29
123.07     616.67
123.17     650.60
123.27     654.59
123.37     622.00
123.47     634.00
123.57     640.00
123.67     639.00
123.77     669.38
123.87     596.00
123.97     603.44
124.07     647.00
124.17     587.53
124.27     620.00
124.37     641.00
124.47     607.44
124.57     587.00
124.67     586.00
124.77     592.00
124.87     620.00
124.97     575.16
