  9.97     600.00
 10.07     615.00
 10.17     616.00
 10.27     563.00
 10.37     569.00
 10.47     543.00
 10.57     583.00
 10.67     599.52
 10.77     605.00
 10.87     591.00
 10.97     579.00
 11.07     553.00
 11.17     623.00
 11.27     610.00
 11.37     549.74
 11.47     633.00
 11.57     601.00
 11.67     597.00
 11.77     624.05
 11.87     638.00
 11.97     653.00
 12.07     728.00
 12.17     703.20
 12.27     698.00
 12.37     651.00
 12.47     611.00
 12.57     599.00
 12.67     613.00
 12.77     544.58
 12.87     554.00
 12.97     579.00
 13.07     533.00
 13.17     589.89
 13.27     597.00
 13.37     570.00
 13.47     566.00
 13.57     542.00
 13.67     537.00
 13.77     529.96
 13.87     534.00
 13.97     608.99
 14.07     560.13
 14.17     575.31
 14.27     570.04
 14.37     537.00
 14.47     618.98
 14.57     536.95
 14.67     593.00
 14.77     569.00
 14.87     536.00
 14.97     505.00
 15.07     517.75
 15.17     514.00
 15.27     568.00
 15.37     565.32
 15.47     568.00
 15.57     519.57
 15.67     626.00
 15.77     574.00
 15.87     582.00
 15.97     579.00
 16.07     542.00
 16.17     555.00
 16.27     555.00
 16.37     558.00
 16.47     542.32
 16.57     560.00
 16.67     521.61
 16.77     583.00
 16.87     537.52
 16.97     541.00
 17.07     548.00
 17.17     545.00
 17.27     556.96
 17.37     595.19
 17.47     615.43
 17.57     542.00
 17.67     568.00
 17.77     571.95
 17.87     530.25
 17.97     599.00
 18.07     572.62
 18.17     543.00
 18.27     580.00
 18.37     558.00
 18.47     547.00
 18.57     585.00
 18.67     480.00
 18.77     558.00
 18.87     517.64
 18.97     598.79
 19.07     507.00
 19.17     597.00
 19.27     609.13
 19.37     608.59
 19.47     556.00
 19.57     585.10
 19.67     596.15
 19.77     535.00
 19.87     511.00
 19.97     565.65
 20.07     560.50
 20.17     587.00
 20.27     551.00
 20.37     558.00
 20.47     548.00
 20.57     607.34
 20.67     578.41
 20.77     586.00
 20.87     579.00
 20.97     526.00
 21.07     549.00
 21.17     564.00
 21.27     616.00
 21.37     577.96
 21.47     533.17
 21.57     569.00
 21.67     591.00
 21.77     570.28
 21.87     563.00
 21.97     560.00
 22.07     518.62
 22.17     582.31
 22.27     528.00
 22.37     602.83
 22.47     550.00
 22.57     512.27
 22.67     581.00
 22.77     538.00
 22.87     551.30
 22.97     542.68
 23.07     569.00
 23.17     554.00
 23.27     577.44
 23.37     550.00
 23.47     556.81
 23.57     553.00
 23.67     542.00
 23.77     513.00
 23.87     546.00
 23.97     587.66
 24.07     539.00
 24.17     566.00
 24.27     550.00
 24.37     557.00
 24.47     579.32
 24.57     590.00
 24.67     601.00
 24.77     605.68
 24.87     633.00
 24.97     557.00
 25.07     606.00
 25.17     590.00
 25.27     599.00
 25.37     562.00
 25.47     540.00
 25.57     554.61
 25.67     583.00
 25.77     539.00
 25.87     571.00
 25.97     538.00
 26.07     520.00
 26.17     509.31
 26.27     501.00
 26.37     574.00
 26.47     501.59
 26.57     596.00
 26.67     561.05
 26.77     572.48
 26.87     551.00
 26.97     497.91
 27.07     576.00
 27.17     542.07
 27.27     549.00
 27.37     582.00
 27.47     571.00
 27.57     510.91
 27.67     535.00
 27.77     573.00
 27.87     619.00
 27.97     662.00
 28.07     775.00
 28.17     930.00
 28.27     987.00
 28.37     968.00
 28.47     836.00
 28.57     669.00
 28.67     713.00
 28.77     715.00
 28.87     791.50
 28.97     871.73
 29.07     833.00
 29.17     709.00
 29.27     643.24
 29.37     601.00
 29.47     558.80
 29.57     623.00
 29.67     637.00
 29.77     530.69
 29.87     616.00
 29.97     571.32
 30.07     537.45
 30.17     598.59
 30.27     565.78
 30.37     553.00
 30.47     574.54
 30.57     555.42
 30.67     582.00
 30.77     619.00
 30.87     590.00
 30.97     620.71
 31.07     553.61
 31.17     627.00
 31.27     522.68
 31.37     527.00
 31.47     522.00
 31.57     586.00
 31.67     510.00
 31.77     529.00
 31.87     536.63
 31.97     571.67
 32.07     520.00
 32.17     553.00
 32.27     507.49
 32.37     587.00
 32.47     589.00
 32.57     505.60
 32.67     502.00
 32.77     549.00
 32.87     536.00
 32.97     592.00
 33.07     547.00
 33.17     526.00
 33.27     579.00
 33.37     557.32
 33.47     542.00
 33.57     526.23
 33.67     619.00
 33.77     737.47
 33.87     796.14
 33.97     983.86
 34.07    1019.67
 34.17    1072.08
 34.27     888.00
 34.37     791.00
 34.47     635.00
 34.57     533.00
 34.67     584.00
 34.77     537.00
 34.87     527.00
 34.97     548.00
 35.07     547.00
 35.17     483.00
 35.27     523.00
 35.37     526.30
 35.47     532.00
 35.57     545.54
 35.67     468.32
 35.77     517.09
 35.87     514.00
 35.97     479.55
 36.07     497.00
 36.17     529.00
 36.27     474.92
 36.37     521.76
 36.47     484.54
 36.57     483.00
 36.67     538.00
 36.77     527.00
 36.87     553.26
 36.97     506.00
 37.07     505.08
 37.17     540.60
 37.27     468.34
 37.37     509.00
 37.47     498.65
 37.57     533.00
 37.67     512.00
 37.77     516.00
 37.87     507.00
 37.97     499.00
 38.07     541.00
 38.17     534.00
 38.27     516.00
 38.37     526.00
 38.47     484.00
 38.57     477.00
 38.67     500.39
 38.77     511.00
 38.87     532.17
 38.97     511.03
 39.07     539.00
 39.17     506.00
 39.27     520.48
 39.37     506.19
 39.47     475.00
 39.57     519.15
 39.67     555.00
 39.77     553.15
 39.87     517.00
 39.97     569.00
 40.07     539.66
 40.17     479.72
 40.27     541.61
 40.37     518.99
 40.47     469.00
 40.57     494.00
 40.67     493.00
 40.77     518.00
 40.87     554.25
 40.97     460.00
 41.07     509.00
 41.17     479.00
 41.27     536.00
 41.37     480.00
 41.47     499.00
 41.57     479.38
 41.67     536.00
 41.77     511.00
 41.87     516.87
 41.97     474.00
 42.07     476.16
 42.17     477.22
 42.27     537.00
 42.37     578.00
 42.47     586.00
 42.57     578.00
 42.67     636.78
 42.77     587.00
 42.87     589.12
 42.97     589.92
 43.07     587.24
 43.17     571.48
 43.27     499.73
 43.37     497.00
 43.47     507.00
 43.57     468.00
 43.67     476.59
 43.77     494.00
 43.87     482.00
 43.97     539.00
 44.07     495.00
 44.17     495.00
 44.27     479.70
 44.37     537.31
 44.47     477.00
 44.57     482.75
 44.67     460.00
 44.77     518.00
 44.87     522.00
 44.97     520.00
 45.07     468.00
 45.17     497.00
 45.27     508.00
 45.37     515.00
 45.47     467.97
 45.57     526.64
 45.67     507.00
 45.77     494.29
 45.87     489.00
 45.97     464.34
 46.07     501.00
 46.17     495.00
 46.27     493.00
 46.37     459.40
 46.47     505.00
 46.57     490.00
 46.67     542.13
 46.77     491.85
 46.87     480.00
 46.97     522.35
 47.07     545.00
 47.17     529.44
 47.27     507.00
 47.37     509.00
 47.47     535.00
 47.57     541.19
 47.67     622.00
 47.77     576.00
 47.87     580.00
 47.97     591.00
 48.07     597.83
 48.17     562.00
 48.27     561.78
 48.37     529.61
 48.47     505.53
 48.57     543.00
 48.67     489.00
 48.77     583.80
 48.87     573.10
 48.97     534.00
 49.07     563.15
 49.17     544.00
 49.27     660.00
 49.37     674.00
 49.47     723.00
 49.57     823.00
 49.67     942.00
 49.77    1118.00
 49.87    1434.00
 49.97    1756.00
 50.07    2194.00
 50.17    2593.00
 50.27    2428.00
 50.37    2324.17
 50.47    1960.00
 50.57    1509.00
 50.67    1204.08
 50.77     965.02
 50.87     733.00
 50.97     650.00
 51.07     627.00
 51.17     650.00
 51.27     627.38
 51.37     603.00
 51.47     583.66
 51.57     531.00
 51.67     575.00
 51.77     488.20
 51.87     559.00
 51.97     560.52
 52.07     542.00
 52.17     480.49
 52.27     573.54
 52.37     547.00
 52.47     561.00
 52.57     547.78
 52.67     543.00
 52.77     543.00
 52.87     647.00
 52.97     710.00
 53.07     785.00
 53.17     871.00
 53.27     982.00
 53.37    1118.00
 53.47    1093.00
 53.57    1156.00
 53.67    1121.00
 53.77     995.59
 53.87     921.00
 53.97     725.00
 54.07     669.00
 54.17     581.00
 54.27     572.00
 54.37     571.37
 54.47     578.00
 54.57     557.00
 54.67     571.00
 54.77     552.00
 54.87     517.00
 54.97     567.00
 55.07     559.00
 55.17     548.32
 55.27     563.67
 55.37     563.48
 55.47     577.91
 55.57     552.00
 55.67     529.48
 55.77     546.00
 55.87     612.00
 55.97     655.88
 56.07     634.00
 56.17     741.00
 56.27     817.00
 56.37    1061.87
 56.47    1353.00
 56.57    1767.00
 56.67    2065.09
 56.77    2340.00
 56.87    2628.00
 56.97    2652.60
 57.07    2453.00
 57.17    2173.00
 57.27    1773.09
 57.37    1317.93
 57.47    1121.00
 57.57     888.00
 57.67     784.02
 57.77     713.00
 57.87     607.45
 57.97     699.41
 58.07     682.00
 58.17     733.00
 58.27     772.84
 58.37     908.40
 58.47    1019.29
 58.57    1069.00
 58.67    1234.00
 58.77    1367.60
 58.87    1490.00
 58.97    1627.47
 59.07    1629.00
 59.17    1532.00
 59.27    1530.00
 59.37    1384.95
 59.47    1233.00
 59.57    1247.00
 59.67    1211.75
 59.77    1073.00
 59.87    1188.00
 59.97    1314.00
 60.07    1429.00
 60.17    1582.00
 60.27    1570.62
 60.37    1564.00
 60.47    1574.00
 60.57    1314.00
 60.67    1104.39
 60.77     996.00
 60.87     826.34
 60.97     708.00
 61.07     659.00
 61.17     603.94
 61.27     642.00
 61.37     633.00
 61.47     641.00
 61.57     696.84
 61.67     783.00
 61.77     934.00
 61.87    1073.00
 61.97    1198.00
 62.07    1349.00
 62.17    1437.00
 62.27    1385.00
 62.37    1411.99
 62.47    1240.00
 62.57    1131.20
 62.67     913.13
 62.77     767.00
 62.87     696.00
 62.97     646.00
 63.07     617.00
 63.17     583.00
 63.27     542.51
 63.37     526.00
 63.47     552.00
 63.57     519.01
 63.67     547.07
 63.77     574.17
 63.87     630.00
 63.97     659.00
 64.07     629.25
 64.17     722.00
 64.27     806.08
 64.37     842.00
 64.47     947.00
 64.57    1045.94
 64.67     982.05
 64.77    1000.00
 64.87     980.00
 64.97     983.00
 65.07     868.00
 65.17     784.00
 65.27     682.65
 65.37     725.00
 65.47     615.34
 65.57     615.00
 65.67     593.00
 65.77     569.33
 65.87     568.00
 65.97     571.00
 66.07     583.00
 66.17     535.00
 66.27     569.00
 66.37     522.00
 66.47     563.36
 66.57     599.56
 66.67     563.00
 66.77     561.00
 66.87     529.39
 66.97     596.51
 67.07     558.00
 67.17     646.00
 67.27     755.00
 67.37     845.81
 67.47     923.79
 67.57    1169.00
 67.67    1460.61
 67.77    1778.89
 67.87    2013.00
 67.97    2273.00
 68.07    2395.00
 68.17    2415.77
 68.27    2310.00
 68.37    2094.00
 68.47    1836.44
 68.57    1571.00
 68.67    1267.94
 68.77     985.00
 68.87     909.00
 68.97     754.00
 69.07     657.74
 69.17     626.10
 69.27     633.27
 69.37     637.00
 69.47     548.08
 69.57     597.00
 69.67     610.00
 69.77     583.51
 69.87     540.00
 69.97     551.00
 70.07     587.06
 70.17     570.00
 70.27     521.19
 70.37     571.20
 70.47     536.00
 70.57     563.00
 70.67     540.99
 70.77     589.08
 70.87     597.00
 70.97     630.00
 71.07     638.92
 71.17     652.00
 71.27     789.79
 71.37     894.00
 71.47    1016.00
 71.57    1184.34
 71.67    1350.00
 71.77    1509.37
 71.87    1801.00
 71.97    1869.62
 72.07    1857.12
 72.17    1943.00
 72.27    1776.21
 72.37    1670.00
 72.47    1599.00
 72.57    1429.00
 72.67    1274.00
 72.77    1073.75
 72.87     999.84
 72.97     962.64
 73.07     903.33
 73.17     813.41
 73.27     775.00
 73.37     760.00
 73.47     597.00
 73.57     630.72
 73.67     629.00
 73.77     576.00
 73.87     584.93
 73.97     609.00
 74.07     585.00
 74.17     608.39
 74.27     609.19
 74.37     621.00
 74.47     637.00
 74.57     586.92
 74.67     536.57
 74.77     630.00
 74.87     596.00
 74.97     547.41
 75.07     557.75
 75.17     570.00
 75.27     558.00
 75.37     578.00
 75.47     538.00
 75.57     541.00
 75.67     563.00
 75.77     534.36
 75.87     560.38
 75.97     646.00
 76.07     613.00
 76.17     608.32
 76.27     690.00
 76.37     660.00
 76.47     697.00
 76.57     654.00
 76.67     721.00
 76.77     669.71
 76.87     703.00
 76.97     681.00
 77.07     627.82
 77.17     573.03
 77.27     559.00
 77.37     554.00
 77.47     549.00
 77.57     496.21
 77.67     557.93
 77.77     522.00
 77.87     517.00
 77.97     542.00
 78.07     481.76
 78.17     522.00
 78.27     537.91
 78.37     547.00
 78.47     539.00
 78.57     489.00
 78.67     479.00
 78.77     572.00
 78.87     569.00
 78.97     477.03
 79.07     561.33
 79.17     521.82
 79.27     574.14
 79.37     519.00
 79.47     576.42
 79.57     489.00
 79.67     544.49
 79.77     559.86
 79.87     562.00
 79.97     498.00
 80.07     548.53
 80.17     577.10
 80.27     526.00
 80.37     575.15
 80.47     581.00
 80.57     580.00
 80.67     602.00
 80.77     666.50
 80.87     627.00
 80.97     671.00
 81.07     715.24
 81.17     724.00
 81.27     793.38
 81.37     799.00
 81.47     783.00
 81.57     749.00
 81.67     806.00
 81.77     697.00
 81.87     661.80
 81.97     661.00
 82.07     672.00
 82.17     628.84
 82.27     607.69
 82.37     637.00
 82.47     582.00
 82.57     646.90
 82.67     601.00
 82.77     558.52
 82.87     597.60
 82.97     569.13
 83.07     553.59
 83.17     554.00
 83.27     608.00
 83.37     562.00
 83.47     546.00
 83.57     534.00
 83.67     601.00
 83.77     599.75
 83.87     528.00
 83.97     573.55
 84.07     554.00
 84.17     573.00
 84.27     568.25
 84.37     572.42
 84.47     562.00
 84.57     577.00
 84.67     554.00
 84.77     560.00
 84.87     520.00
 84.97     547.87
 85.07     536.00
 85.17     498.00
 85.27     522.00
 85.37     498.00
 85.47     547.00
 85.57     498.00
 85.67     506.40
 85.77     514.00
 85.87     512.00
 85.97     531.00
 86.07     545.00
 86.17     509.00
 86.27     538.00
 86.37     562.00
 86.47     557.00
 86.57     531.00
 86.67     511.19
 86.77     553.00
 86.87     624.27
 86.97     575.00
 87.07     621.00
 87.17     576.52
 87.27     617.81
 87.37     659.36
 87.47     603.99
 87.57     616.42
 87.67     674.15
 87.77     649.00
 87.87     636.00
 87.97     621.64
 88.07     557.46
 88.17     611.00
 88.27     597.00
 88.37     591.00
 88.47     556.00
 88.57     562.00
 88.67     598.15
 88.77     537.86
 88.87     643.00
 88.97     580.00
 89.07     592.00
 89.17     629.00
 89.27     631.72
 89.37     597.00
 89.47     603.00
 89.57     580.00
 89.67     623.23
 89.77     606.67
 89.87     615.00
 89.97     554.00
 90.07     578.51
 90.17     533.00
 90.27     575.70
 90.37     542.48
 90.47     487.00
 90.57     505.67
 90.67     545.95
 90.77     549.13
 90.87     480.13
 90.97     506.00
 91.07     548.62
 91.17     511.20
 91.27     525.00
 91.37     493.89
 91.47     512.39
 91.57     509.52
 91.67     520.00
 91.77     533.00
 91.87     561.29
 91.97     570.00
 92.07     547.00
 92.17     595.00
 92.27     588.00
 92.37     591.91
 92.47     561.60
 92.57     602.68
 92.67     658.00
 92.77     742.00
 92.87     728.00
 92.97     737.51
 93.07     761.00
 93.17     701.53
 93.27     737.00
 93.37     767.88
 93.47     862.48
 93.57     847.00
 93.67     858.17
 93.77     881.00
 93.87     903.00
 93.97     882.46
 94.07     874.00
 94.17     834.78
 94.27     871.92
 94.37     839.00
 94.47     889.00
 94.57     899.00
 94.67     946.00
 94.77     903.00
 94.87     956.00
 94.97     917.89
 95.07     888.23
 95.17     912.88
 95.27     782.84
 95.37     891.00
 95.47     720.00
 95.57     759.00
 95.67     704.23
 95.77     727.00
 95.87     691.00
 95.97     690.00
 96.07     715.65
 96.17     675.00
 96.27     648.75
 96.37     715.00
 96.47     719.61
 96.57     867.00
 96.67     878.00
 96.77     936.00
 96.87     986.06
 96.97    1044.00
 97.07    1141.00
 97.17    1217.00
 97.27    1350.00
 97.37    1346.00
 97.47    1453.31
 97.57    1366.00
 97.67    1458.00
 97.77    1390.00
 97.87    1371.00
 97.97    1345.00
 98.07    1288.39
 98.17    1161.00
 98.27    1153.00
 98.37    1036.35
 98.47     970.00
 98.57     888.80
 98.67     900.54
 98.77     858.00
 98.87     798.55
 98.97     791.47
 99.07     819.77
 99.17     784.00
 99.27     887.00
 99.37     873.00
 99.47     922.00
 99.57    1064.00
 99.67    1136.00
 99.77    1208.00
 99.87    1336.00
 99.97    1431.91
100.07    1592.38
100.17    1755.00
100.27    1881.08
100.37    1875.41
100.47    1998.47
100.57    2030.00
100.67    2093.00
100.77    2147.00
100.87    2102.00
100.97    2067.00
101.07    1907.78
101.17    2006.69
101.27    1914.00
101.37    1805.00
101.47    1673.00
101.57    1601.72
101.67    1509.95
101.77    1405.00
101.87    1375.93
101.97    1209.80
102.07    1244.00
102.17    1159.00
102.27    1106.00
102.37    1124.00
102.47    1116.36
102.57    1080.00
102.67    1098.00
102.77    1009.00
102.87    1030.00
102.97     966.00
103.07     937.00
103.17     891.00
103.27     863.00
103.37     826.00
103.47     783.65
103.57     716.56
103.67     729.00
103.77     660.00
103.87     607.00
103.97     623.28
104.07     615.00
104.17     576.00
104.27     598.00
104.37     525.42
104.47     567.00
104.57     527.00
104.67     564.00
104.77     499.00
104.87     532.00
104.97     531.00
105.07     539.00
105.17     560.55
105.27     558.29
105.37     517.00
105.47     554.00
105.57     549.00
105.67     584.00
105.77     583.15
105.87     515.19
105.97     548.00
106.07     548.00
106.17     553.00
106.27     557.00
106.37     616.00
106.47     575.00
106.57     630.00
106.67     655.00
106.77     605.72
106.87     618.00
106.97     641.00
107.07     719.83
107.17     675.00
107.27     714.00
107.37     753.45
107.47     712.46
107.57     695.00
107.67     710.00
107.77     653.00
107.87     694.00
107.97     719.60
108.07     675.54
108.17     630.00
108.27     693.07
108.37     699.63
108.47     670.00
108.57     685.00
108.67     727.86
108.77     688.16
108.87     727.79
108.97     651.87
109.07     662.00
109.17     676.00
109.27     662.00
109.37     677.00
109.47     653.41
109.57     627.00
109.67     603.00
109.77     606.85
109.87     630.00
109.97     611.00
110.07     580.00
110.17     604.00
110.27     523.99
110.37     564.00
110.47     565.00
110.57     540.33
110.67     538.01
110.77     498.46
110.87     542.00
110.97     555.00
111.07     583.90
111.17     519.00
111.27     536.00
111.37     568.07
111.47     511.03
111.57     560.00
111.67     561.00
111.77     514.00
111.87     545.00
111.97     539.00
112.07     589.88
112.17     544.00
112.27     536.79
112.37     535.79
112.47     544.03
112.57     597.24
112.67     568.95
112.77     606.97
112.87     631.00
112.97     674.00
113.07     698.00
113.17     713.00
113.27     723.45
113.37     801.00
113.47     821.71
113.57     846.18
113.67     835.61
113.77     845.62
113.87     946.00
113.97    1002.00
114.07    1135.00
114.17    1159.00
114.27    1165.00
114.37    1288.00
114.47    1351.00
114.57    1434.57
114.67    1511.00
114.77    1707.00
114.87    1829.79
114.97    2052.00
115.07    2325.00
115.17    2483.00
115.27    2740.00
115.37    3115.00
115.47    3303.93
115.57    3688.00
115.67    3880.00
115.77    4482.00
115.87    4694.00
115.97    4994.00
116.07    5477.00
116.17    5730.00
116.27    6246.00
116.37    6445.00
116.47    6706.00
116.57    7047.23
116.67    7254.00
116.77    7061.54
116.87    6975.55
116.97    6842.00
117.07    6638.00
117.17    6397.49
117.27    5896.46
117.37    5587.27
117.47    5088.00
117.57    4878.00
117.67    4702.00
117.77    4164.92
117.87    3823.00
117.97    3471.08
118.07    3037.73
118.17    2709.32
118.27    2294.42
118.37    2147.00
118.47    1857.98
118.57    1649.40
118.67    1487.11
118.77    1297.00
118.87    1225.12
118.97    1147.74
119.07     976.03
119.17     910.00
119.27     902.27
119.37     833.00
119.47     769.00
119.57     698.09
119.67     704.00
119.77     602.00
119.87     629.00
119.97     684.00
120.07     569.00
120.17     612.60
120.27     626.09
120.37     562.61
120.47     578.00
120.57     625.00
120.67     545.00
120.77     572.99
120.87     577.00
120.97     593.00
121.07     546.00
121.17     601.50
121.27     530.41
121.37     550.91
121.47     564.00
121.57     525.00
121.67     544.00
121.77     639.69
121.87     558.00
121.97     613.30
122.07     628.26
122.17     641.00
122.27     646.00
122.37     665.00
122.47     630.76
122.57     636.79
122.67     681.46
122.77     662.00
122.87     659.00
122.97     661.00
123.07     688.00
123.17     671.00
123.27     640.00
123.37     619.25
123.47     669.45
123.57     647.00
123.67     643.18
123.77     573.00
123.87     622.00
123.97     599.00
124.07     623.00
124.17     596.31
124.27     597.62
124.37     612.00
124.47     553.08
124.57     635.00
124.67     566.00
124.77     618.00
124.87     588.15
124.97     586.00
