  9.97     602.00
 10.07     595.00
 10.17     610.00
 10.27     597.00
 10.37     587.00
 10.47     520.64
 10.57     578.00
 10.67     569.00
 10.77     560.91
 10.87     552.78
 10.97     578.00
 11.07     583.00
 11.17     578.43
 11.27     578.29
 11.37     608.00
 11.47     598.44
 11.57     588.00
 11.67     572.00
 11.77     570.00
 11.87     645.00
 11.97     611.28
 12.07     619.00
 12.17     665.84
 12.27     716.00
 12.37     655.38
 12.47     585.90
 12.57     589.00
 12.67     540.62
 12.77     587.00
 12.87     548.00
 12.97     521.00
 13.07     580.00
 13.17     523.00
 13.27     612.13
 13.37     564.00
 13.47     605.00
 13.57     608.27
 13.67     610.00
 13.77     544.00
 13.87     545.83
 13.97     551.00
 14.07     540.00
 14.17     535.00
 14.27     565.00
 14.37     584.38
 14.47     592.87
 14.57     525.29
 14.67     570.00
 14.77     527.00
 14.87     551.57
 14.97     560.00
 15.07     562.00
 15.17     598.16
 15.27     529.00
 15.37     602.00
 15.47     579.85
 15.57     546.00
 15.67     546.07
 15.77     559.00
 15.87     564.00
 15.97     534.67
 16.07     607.52
 16.17     576.07
 16.27     569.22
 16.37     535.00
 16.47     533.00
 16.57     546.00
 16.67     589.00
 16.77     565.24
 16.87     572.00
 16.97     566.00
 17.07     579.75
 17.17     547.00
 17.27     525.00
 17.37     557.05
 17.47     558.00
 17.57     576.00
 17.67     583.75
 17.77     586.00
 17.87     524.00
 17.97     594.86
 18.07     537.00
 18.17     486.00
 18.27     588.00
 18.37     591.63
 18.47     523.00
 18.57     528.67
 18.67     550.00
 18.77     576.00
 18.87     576.00
 18.97     542.55
 19.07     536.00
 19.17     576.00
 19.27     552.00
 19.37     561.00
 19.47     539.00
 19.57     531.00
 19.67     552.66
 19.77     576.00
 19.87     575.00
 19.97     561.00
 20.07     540.86
 20.17     571.00
 20.27     533.45
 20.37     531.70
 20.47     548.00
 20.57     518.00
 20.67     535.68
 20.77     602.00
 20.87     595.62
 20.97     549.10
 21.07     560.90
 21.17     598.00
 21.27     541.00
 21.37     535.24
 21.47     555.00
 21.57     601.82
 21.67     563.00
 21.77     576.00
 21.87     598.41
 21.97     538.00
 22.07     521.00
 22.17     526.00
 22.27     589.96
 22.37     567.37
 22.47     575.65
 22.57     541.00
 22.67     532.00
 22.77     595.00
 22.87     570.00
 22.97     570.00
 23.07     583.00
 23.17     581.24
 23.27     566.00
 23.37     576.00
 23.47     537.00
 23.57     551.00
 23.67     533.06
 23.77     560.00
 23.87     540.00
 23.97     516.45
 24.07     580.00
 24.17     551.00
 24.27     510.21
 24.37     575.00
 24.47     539.00
 24.57     621.05
 24.67     573.00
 24.77     647.00
 24.87     658.41
 24.97     620.81
 25.07     578.10
 25.17     641.00
 25.27     517.03
 25.37     594.00
 25.47     504.79
 25.57     530.00
 25.67     589.00
 25.77     582.72
 25.87     495.81
 25.97     543.00
 26.07     485.00
 26.17     532.00
 26.27     506.45
 26.37     536.32
 26.47     513.71
 26.57     523.00
 26.67     562.54
 26.77     535.00
 26.87     512.41
 26.97     591.14
 27.07     509.34
 27.17     553.00
 27.27     575.89
 27.37     544.00
 27.47     560.00
 27.57     535.07
 27.67     583.00
 27.77     598.00
 27.87     620.00
 27.97     641.00
 28.07     748.00
 28.17     873.00
 28.27     958.00
 28.37     951.00
 28.47     834.81
 28.57     755.19
 28.67     716.00
 28.77     708.00
 28.87     775.00
 28.97     786.00
 29.07     760.23
 29.17     797.02
 29.27     670.00
 29.37     628.95
 29.47     555.20
 29.57     591.00
 29.67     561.89
 29.77     597.69
 29.87     519.91
 29.97     547.45
 30.07     586.00
 30.17     588.53
 30.27     582.00
 30.37     580.76
 30.47     576.00
 30.57     507.59
 30.67     580.00
 30.77     544.63
 30.87     551.13
 30.97     609.00
 31.07     600.00
 31.17     541.32
 31.27     561.00
 31.37     568.00
 31.47     515.43
 31.57     560.00
 31.67     568.00
 31.77     544.00
 31.87     573.97
 31.97     507.00
 32.07     559.95
 32.17     562.00
 32.27     566.00
 32.37     561.00
 32.47     483.05
 32.57     528.00
 32.67     510.07
 32.77     546.00
 32.87     522.00
 32.97     558.22
 33.07     542.22
 33.17     574.24
 33.27     532.93
 33.37     578.00
 33.47     535.00
 33.57     556.85
 33.67     572.00
 33.77     698.00
 33.87     791.00
 33.97     960.00
 34.07    1121.00
 34.17    1102.27
 34.27     967.30
 34.37     758.00
 34.47     627.00
 34.57     601.00
 34.67     600.18
 34.77     564.00
 34.87     562.68
 34.97     505.00
 35.07     520.00
 35.17     534.00
 35.27     566.71
 35.37     504.00
 35.47     504.94
 35.57     525.00
 35.67     480.00
 35.77     503.00
 35.87     528.00
 35.97     483.00
 36.07     515.66
 36.17     456.00
 36.27     546.00
 36.37     471.00
 36.47     562.00
 36.57     525.00
 36.67     488.00
 36.77     534.41
 36.87     510.00
 36.97     547.00
 37.07     474.00
 37.17     462.00
 37.27     528.00
 37.37     490.00
 37.47     579.00
 37.57     498.00
 37.67     509.24
 37.77     512.00
 37.87     559.36
 37.97     476.00
 38.07     562.29
 38.17     514.00
 38.27     486.00
 38.37     516.00
 38.47     492.00
 38.57     469.41
 38.67     481.39
 38.77     466.82
 38.87     551.00
 38.97     505.00
 39.07     551.18
 39.17     499.00
 39.27     519.80
 39.37     468.00
 39.47     472.00
 39.57     533.58
 39.67     505.00
 39.77     513.00
 39.87     506.00
 39.97     457.00
 40.07     464.65
 40.17     526.01
 40.27     516.00
 40.37     515.00
 40.47     506.61
 40.57     477.00
 40.67     463.00
 40.77     492.00
 40.87     477.91
 40.97     478.00
 41.07     502.00
 41.17     504.00
 41.27     448.00
 41.37     464.00
 41.47     539.66
 41.57     484.00
 41.67     502.77
 41.77     508.85
 41.87     522.00
 41.97     492.00
 42.07     550.57
 42.17     467.55
 42.27     512.99
 42.37     513.00
 42.47     541.01
 42.57     586.00
 42.67     615.46
 42.77     591.00
 42.87     581.00
 42.97     567.00
 43.07     529.00
 43.17     514.00
 43.27     514.00
 43.37     484.12
 43.47     506.00
 43.57     524.37
 43.67     484.98
 43.77     458.31
 43.87     534.47
 43.97     491.25
 44.07     458.05
 44.17     490.00
 44.27     499.00
 44.37     502.00
 44.47     528.00
 44.57     526.19
 44.67     498.00
 44.77     482.00
 44.87     511.00
 44.97     492.00
 45.07     493.00
 45.17     516.00
 45.27     456.95
 45.37     528.25
 45.47     541.09
 45.57     536.32
 45.67     516.03
 45.77     536.03
 45.87     512.88
 45.97     457.54
 46.07     468.00
 46.17     513.00
 46.27     527.00
 46.37     540.00
 46.47     540.44
 46.57     543.59
 46.67     535.00
 46.77     481.57
 46.87     475.00
 46.97     519.00
 47.07     544.79
 47.17     505.00
 47.27     469.00
 47.37     512.00
 47.47     548.68
 47.57     538.00
 47.67     566.00
 47.77     560.00
 47.87     600.00
 47.97     576.41
 48.07     601.00
 48.17     563.00
 48.27     543.29
 48.37     534.30
 48.47     499.54
 48.57     559.63
 48.67     512.30
 48.77     488.30
 48.87     499.66
 48.97     534.00
 49.07     543.00
 49.17     571.13
 49.27     571.90
 49.37     649.00
 49.47     700.00
 49.57     750.52
 49.67     833.00
 49.77    1074.00
 49.87    1272.00
 49.97    1730.00
 50.07    2153.23
 50.17    2403.29
 50.27    2585.00
 50.37    2507.00
 50.47    2079.00
 50.57    1639.00
 50.67    1254.80
 50.77     978.74
 50.87     807.15
 50.97     695.91
 51.07     612.00
 51.17     633.00
 51.27     549.00
 51.37     615.00
 51.47     578.05
 51.57     596.42
 51.67     589.55
 51.77     572.76
 51.87     542.00
 51.97     554.00
 52.07     543.00
 52.17     522.57
 52.27     499.25
 52.37     530.00
 52.47     593.00
 52.57     579.20
 52.67     578.00
 52.77     513.85
 52.87     548.11
 52.97     656.00
 53.07     759.00
 53.17     808.00
 53.27     942.00
 53.37    1046.18
 53.47    1185.34
 53.57    1172.11
 53.67    1120.00
 53.77    1115.29
 53.87     998.46
 53.97     808.00
 54.07     699.00
 54.17     631.00
 54.27     592.00
 54.37     561.00
 54.47     568.00
 54.57     583.17
 54.67     553.08
 54.77     544.40
 54.87     535.00
 54.97     520.97
 55.07     546.00
 55.17     478.00
 55.27     560.11
 55.37     548.49
 55.47     499.81
 55.57     539.37
 55.67     517.22
 55.77     550.00
 55.87     526.00
 55.97     639.00
 56.07     666.66
 56.17     670.00
 56.27     752.29
 56.37     907.00
 56.47    1199.00
 56.57    1551.00
 56.67    1930.07
 56.77    2367.00
 56.87    2492.00
 56.97    2763.00
 57.07    2475.00
 57.17    2291.69
 57.27    1932.00
 57.37    1556.00
 57.47    1176.00
 57.57     962.00
 57.67     774.07
 57.77     753.14
 57.87     702.00
 57.97     637.98
 58.07     622.00
 58.17     655.00
 58.27     727.00
 58.37     828.75
 58.47     936.00
 58.57    1054.00
 58.67    1151.00
 58.77    1381.00
 58.87    1362.00
 58.97    1561.95
 59.07    1594.64
 59.17    1603.00
 59.27    1485.22
 59.37    1467.33
 59.47    1278.43
 59.57    1258.00
 59.67    1150.65
 59.77    1150.00
 59.87    1135.70
 59.97    1258.00
 60.07    1421.00
 60.17    1495.00
 60.27    1476.03
 60.37    1611.00
 60.47    1492.00
 60.57    1383.00
 60.67    1225.00
 60.77     986.52
 60.87     882.00
 60.97     779.00
 61.07     698.64
 61.17     661.60
 61.27     633.00
 61.37     610.63
 61.47     705.00
 61.57     672.93
 61.67     735.00
 61.77     872.00
 61.87    1001.00
 61.97    1171.89
 62.07    1220.00
 62.17    1458.08
 62.27    1463.82
 62.37    1342.00
 62.47    1246.00
 62.57    1133.48
 62.67    1002.00
 62.77     833.00
 62.87     703.00
 62.97     710.88
 63.07     623.00
 63.17     600.88
 63.27     580.00
 63.37     590.00
 63.47     551.00
 63.57     579.00
 63.67     598.00
 63.77     513.79
 63.87     604.79
 63.97     632.00
 64.07     586.98
 64.17     707.00
 64.27     791.00
 64.37     851.00
 64.47     931.00
 64.57     966.00
 64.67     976.00
 64.77    1001.00
 64.87     987.00
 64.97     980.00
 65.07     881.00
 65.17     830.00
 65.27     728.52
 65.37     725.00
 65.47     610.00
 65.57     629.00
 65.67     659.59
 65.77     591.00
 65.87     540.00
 65.97     523.91
 66.07     564.00
 66.17     564.00
 66.27     584.00
 66.37     537.49
 66.47     541.05
 66.57     530.00
 66.67     565.00
 66.77     544.00
 66.87     572.00
 66.97     575.00
 67.07     621.67
 67.17     649.07
 67.27     685.00
 67.37     766.00
 67.47     932.74
 67.57    1092.00
 67.67    1319.00
 67.77    1664.00
 67.87    1868.51
 67.97    2063.00
 68.07    2364.38
 68.17    2470.00
 68.27    2343.00
 68.37    2319.00
 68.47    1983.07
 68.57    1817.00
 68.67    1439.00
 68.77    1261.00
 68.87     954.00
 68.97     714.00
 69.07     712.85
 69.17     643.00
 69.27     588.41
 69.37     633.00
 69.47     643.00
 69.57     541.34
 69.67     604.04
 69.77     576.00
 69.87     571.00
 69.97     576.00
 70.07     603.00
 70.17     548.00
 70.27     592.00
 70.37     543.77
 70.47     573.00
 70.57     600.00
 70.67     568.00
 70.77     573.00
 70.87     567.00
 70.97     537.00
 71.07     573.00
 71.17     625.00
 71.27     733.00
 71.37     788.00
 71.47     930.31
 71.57    1072.39
 71.67    1222.64
 71.77    1468.90
 71.87    1672.00
 71.97    1891.00
 72.07    1986.00
 72.17    1972.00
 72.27    1924.00
 72.37    1705.00
 72.47    1650.00
 72.57    1507.00
 72.67    1258.00
 72.77    1185.62
 72.87    1090.00
 72.97     982.21
 73.07     981.04
 73.17     932.80
 73.27     788.00
 73.37     666.00
 73.47     704.00
 73.57     632.00
 73.67     616.52
 73.77     635.75
 73.87     588.00
 73.97     557.15
 74.07     610.61
 74.17     569.00
 74.27     599.00
 74.37     530.83
 74.47     614.00
 74.57     596.86
 74.67     563.92
 74.77     626.00
 74.87     646.00
 74.97     593.00
 75.07     673.00
 75.17     521.83
 75.27     579.48
 75.37     543.43
 75.47     534.69
 75.57     513.00
 75.67     529.00
 75.77     516.28
 75.87     603.25
 75.97     561.00
 76.07     576.11
 76.17     618.00
 76.27     628.69
 76.37     666.00
 76.47     713.97
 76.57     730.00
 76.67     737.00
 76.77     716.95
 76.87     696.87
 76.97     655.84
 77.07     662.00
 77.17     555.00
 77.27     585.74
 77.37     556.00
 77.47     549.00
 77.57     504.00
 77.67     555.79
 77.77     508.02
 77.87     536.23
 77.97     513.00
 78.07     520.00
 78.17     500.00
 78.27     543.00
 78.37     474.20
 78.47     557.00
 78.57     540.00
 78.67     557.24
 78.77     514.00
 78.87     501.29
 78.97     543.97
 79.07     524.19
 79.17     477.00
 79.27     508.15
 79.37     564.08
 79.47     524.00
 79.57     547.53
 79.67     506.00
 79.77     524.00
 79.87     552.00
 79.97     527.00
 80.07     524.00
 80.17     542.00
 80.27     553.00
 80.37     594.78
 80.47     575.00
 80.57     582.00
 80.67     569.00
 80.77     617.00
 80.87     607.00
 80.97     665.00
 81.07     692.19
 81.17     702.00
 81.27     736.33
 81.37     747.00
 81.47     780.00
 81.57     742.00
 81.67     781.62
 81.77     724.72
 81.87     728.00
 81.97     739.21
 82.07     673.60
 82.17     617.89
 82.27     613.84
 82.37     663.00
 82.47     607.00
 82.57     557.00
 82.67     520.00
 82.77     531.99
 82.87     545.00
 82.97     563.14
 83.07     553.00
 83.17     573.17
 83.27     563.21
 83.37     561.00
 83.47     544.00
 83.57     557.00
 83.67     547.00
 83.77     503.00
 83.87     546.00
 83.97     529.00
 84.07     569.00
 84.17     559.00
 84.27     559.00
 84.37     531.00
 84.47     526.00
 84.57     593.19
 84.67     535.00
 84.77     513.00
 84.87     543.00
 84.97     500.00
 85.07     543.65
 85.17     517.00
 85.27     545.92
 85.37     556.72
 85.47     529.00
 85.57     495.00
 85.67     525.00
 85.77     552.97
 85.87     501.00
 85.97     500.00
 86.07     550.82
 86.17     523.00
 86.27     521.00
 86.37     493.00
 86.47     499.17
 86.57     576.00
 86.67     511.59
 86.77     543.00
 86.87     590.00
 86.97     542.00
 87.07     556.31
 87.17     639.69
 87.27     669.00
 87.37     691.00
 87.47     595.00
 87.57     658.00
 87.67     618.00
 87.77     635.00
 87.87     584.70
 87.97     611.00
 88.07     635.00
 88.17     558.00
 88.27     589.98
 88.37     542.00
 88.47     570.00
 88.57     556.00
 88.67     548.00
 88.77     515.00
 88.87     513.56
 88.97     570.00
 89.07     594.32
 89.17     613.00
 89.27     616.00
 89.37     626.00
 89.47     594.00
 89.57     542.52
 89.67     614.00
 89.77     558.00
 89.87     624.05
 89.97     522.46
 90.07     545.00
 90.17     556.00
 90.27     563.00
 90.37     509.00
 90.47     534.08
 90.57     521.88
 90.67     546.52
 90.77     508.46
 90.87     490.53
 90.97     492.00
 91.07     473.00
 91.17     480.00
 91.27     524.00
 91.37     495.00
 91.47     538.67
 91.57     485.00
 91.67     517.00
 91.77     530.67
 91.87     519.59
 91.97     522.42
 92.07     534.00
 92.17     558.00
 92.27     560.00
 92.37     565.33
 92.47     588.00
 92.57     601.04
 92.67     629.00
 92.77     655.79
 92.87     702.50
 92.97     727.09
 93.07     732.00
 93.17     742.00
 93.27     764.00
 93.37     804.00
 93.47     817.08
 93.57     783.00
 93.67     822.00
 93.77     858.00
 93.87     844.00
 93.97     840.00
 94.07     829.00
 94.17     869.78
 94.27     893.00
 94.37     848.00
 94.47     904.00
 94.57     867.44
 94.67     823.12
 94.77     890.00
 94.87     917.00
 94.97     903.37
 95.07     860.00
 95.17     894.00
 95.27     916.00
 95.37     880.00
 95.47     745.88
 95.57     789.00
 95.67     785.84
 95.77     691.00
 95.87     764.00
 95.97     681.00
 96.07     697.30
 96.17     690.00
 96.27     643.61
 96.37     716.00
 96.47     757.00
 96.57     766.00
 96.67     880.00
 96.77     939.85
 96.87     972.00
 96.97    1059.00
 97.07    1112.00
 97.17    1157.00
 97.27    1306.00
 97.37    1336.00
 97.47    1475.00
 97.57    1332.00
 97.67    1424.00
 97.77    1525.00
 97.87    1392.00
 97.97    1359.00
 98.07    1329.76
 98.17    1198.00
 98.27    1175.99
 98.37    1149.00
 98.47    1008.00
 98.57     963.00
 98.67     919.74
 98.77     843.26
 98.87     872.42
 98.97     805.00
 99.07     793.00
 99.17     781.00
 99.27     772.64
 99.37     826.50
 99.47     843.00
 99.57     965.59
 99.67    1110.92
 99.77    1150.91
 99.87    1200.00
 99.97    1379.00
100.07    1525.56
100.17    1507.67
100.27    1648.91
100.37    1873.00
100.47    1863.00
100.57    2111.00
100.67    2062.00
100.77    2206.00
100.87    2185.00
100.97    2175.45
101.07    2053.00
101.17    1965.38
101.27    1983.00
101.37    1933.90
101.47    1820.00
101.57    1678.00
101.67    1601.00
101.77    1445.00
101.87    1389.06
101.97    1392.34
102.07    1276.00
102.17    1227.00
102.27    1189.93
102.37    1143.00
102.47    1123.00
102.57    1134.00
102.67    1133.00
102.77    1036.96
102.87    1009.00
102.97    1008.05
103.07     925.00
103.17     919.21
103.27     910.00
103.37     849.00
103.47     773.00
103.57     747.23
103.67     688.33
103.77     714.00
103.87     702.00
103.97     656.00
104.07     646.00
104.17     627.42
104.27     616.44
104.37     552.00
104.47     564.00
104.57     507.03
104.67     484.69
104.77     534.00
104.87     546.73
104.97     542.00
105.07     519.00
105.17     529.44
105.27     470.91
105.37     523.37
105.47     535.00
105.57     521.00
105.67     557.00
105.77     541.00
105.87     555.27
105.97     573.00
106.07     579.00
106.17     522.31
106.27     552.20
106.37     596.00
106.47     615.37
106.57     598.00
106.67     647.95
106.77     614.00
106.87     683.57
106.97     643.67
107.07     634.17
107.17     709.74
107.27     644.00
107.37     728.00
107.47     681.26
107.57     655.66
107.67     692.00
107.77     666.75
107.87     673.00
107.97     660.13
108.07     668.00
108.17     631.00
108.27     666.00
108.37     696.00
108.47     701.80
108.57     664.00
108.67     637.00
108.77     673.00
108.87     702.00
108.97     689.00
109.07     733.51
109.17     674.00
109.27     711.86
109.37     683.00
109.47     681.00
109.57     592.93
109.67     628.00
109.77     672.14
109.87     566.00
109.97     564.74
110.07     617.00
110.17     578.00
110.27     604.00
110.37     564.00
110.47     586.00
110.57     581.00
110.67     538.00
110.77     530.00
110.87     517.00
110.97     500.30
111.07     511.00
111.17     511.00
111.27     531.00
111.37     564.91
111.47     535.00
111.57     559.00
111.67     517.00
111.77     528.00
111.87     510.00
111.97     562.93
112.07     524.92
112.17     579.00
112.27     539.00
112.37     595.00
112.47     533.51
112.57     546.00
112.67     642.98
112.77     566.75
112.87     641.00
112.97     613.00
113.07     701.83
113.17     717.00
113.27     669.00
113.37     756.00
113.47     721.00
113.57     777.40
113.67     863.00
113.77     823.00
113.87     902.00
113.97     965.00
114.07     966.79
114.17    1067.43
114.27    1106.00
114.37    1142.00
114.47    1182.00
114.57    1363.00
114.67    1408.88
114.77    1565.00
114.87    1697.34
114.97    1911.00
115.07    2103.00
115.17    2305.00
115.27    2608.00
115.37    2862.00
115.47    2954.00
115.57    3411.00
115.67    3636.44
115.77    3990.00
115.87    4289.00
115.97    4672.00
116.07    5178.00
116.17    5682.26
116.27    5975.00
116.37    6486.82
116.47    6690.00
116.57    6812.00
116.67    7135.00
116.77    7107.03
116.87    7319.00
116.97    7194.00
117.07    6962.00
117.17    6852.00
117.27    6548.00
117.37    6257.73
117.47    5806.00
117.57    5299.00
117.67    4990.00
117.77    4589.00
117.87    4302.00
117.97    3729.43
118.07    3649.00
118.17    3216.00
118.27    2831.40
118.37    2555.90
118.47    2198.00
118.57    1990.23
118.67    1703.00
118.77    1497.00
118.87    1273.00
118.97    1181.37
119.07    1158.40
119.17     986.49
119.27     877.00
119.37     863.21
119.47     827.56
119.57     704.25
119.67     711.00
119.77     692.00
119.87     658.90
119.97     602.00
120.07     590.00
120.17     579.00
120.27     598.00
120.37     574.00
120.47     610.42
120.57     572.75
120.67     599.00
120.77     547.34
120.87     554.00
120.97     524.31
121.07     528.05
121.17     544.71
121.27     524.59
121.37     522.00
121.47     579.00
121.57     555.00
121.67     559.21
121.77     611.36
121.87     557.00
121.97     557.00
122.07     592.00
122.17     604.00
122.27     618.42
122.37     594.09
122.47     626.00
122.57     595.00
122.67     598.50
122.77     619.00
122.87     625.00
122.97     635.00
123.07     589.35
123.17     608.00
123.27     675.00
123.37     652.00
123.47     616.00
123.57     596.28
123.67     599.71
123.77     631.13
123.87     587.26
123.97     582.68
124.07     629.00
124.17     620.00
124.27     606.00
124.37     617.00
124.47     598.00
124.57     616.00
124.67     584.00
124.77     639.00
124.87     551.21
124.97     591.00
