  9.97     614.00
 10.07     573.00
 10.17     563.86
 10.27     624.10
 10.37     583.00
 10.47     571.17
 10.57     599.34
 10.67     566.00
 10.77     575.00
 10.87     592.00
 10.97     599.19
 11.07     605.00
 11.17     562.00
 11.27     574.00
 11.37     605.00
 11.47     565.99
 11.57     635.00
 11.67     608.00
 11.77     617.00
 11.87     626.00
 11.97     686.00
 12.07     651.00
 12.17     695.00
 12.27     680.78
 12.37     696.00
 12.47     636.00
 12.57     638.52
 12.67     563.97
 12.77     579.00
 12.87     565.00
 12.97     552.00
 13.07     572.00
 13.17     545.00
 13.27     563.00
 13.37     529.00
 13.47     620.00
 13.57     590.00
 13.67     582.00
 13.77     535.98
 13.87     547.15
 13.97     587.76
 14.07     541.03
 14.17     614.37
 14.27     561.00
 14.37     593.75
 14.47     511.00
 14.57     538.00
 14.67     577.00
 14.77     595.00
 14.87     539.00
 14.97     605.00
 15.07     559.00
 15.17     562.00
 15.27     538.05
 15.37     612.73
 15.47     586.00
 15.57     530.00
 15.67     573.79
 15.77     619.00
 15.87     584.56
 15.97     587.42
 16.07     561.00
 16.17     551.71
 16.27     560.00
 16.37     562.20
 16.47     597.00
 16.57     536.00
 16.67     542.00
 16.77     564.49
 16.87     586.91
 16.97     526.23
 17.07     574.00
 17.17     542.00
 17.27     604.32
 17.37     548.00
 17.47     533.00
 17.57     602.97
 17.67     582.00
 17.77     555.00
 17.87     533.52
 17.97     580.00
 18.07     560.72
 18.17     562.00
 18.27     572.00
 18.37     593.00
 18.47     566.00
 18.57     574.00
 18.67     529.00
 18.77     524.04
 18.87     542.00
 18.97     600.59
 19.07     580.00
 19.17     586.00
 19.27     578.33
 19.37     529.00
 19.47     570.32
 19.57     562.00
 19.67     538.00
 19.77     545.00
 19.87     528.04
 19.97     517.00
 20.07     555.40
 20.17     576.00
 20.27     581.00
 20.37     571.00
 20.47     591.67
 20.57     598.80
 20.67     596.52
 20.77     522.00
 20.87     542.00
 20.97     590.00
 21.07     531.00
 21.17     562.00
 21.27     542.57
 21.37     537.81
 21.47     549.00
 21.57     556.00
 21.67     553.00
 21.77     551.00
 21.87     587.00
 21.97     524.00
 22.07     506.00
 22.17     505.00
 22.27     547.67
 22.37     581.24
 22.47     554.00
 22.57     587.40
 22.67     542.00
 22.77     582.62
 22.87     574.00
 22.97     536.00
 23.07     594.66
 23.17     514.00
 23.27     560.00
 23.37     585.47
 23.47     545.97
 23.57     593.07
 23.67     559.00
 23.77     550.44
 23.87     537.00
 23.97     543.78
 24.07     507.64
 24.17     535.87
 24.27     565.00
 24.37     587.00
 24.47     570.32
 24.57     569.71
 24.67     592.00
 24.77     634.82
 24.87     634.00
 24.97     640.00
 25.07     584.00
 25.17     624.00
 25.27     564.26
 25.37     582.00
 25.47     590.00
 25.57     600.00
 25.67     547.73
 25.77     510.50
 25.87     525.00
 25.97     529.80
 26.07     609.00
 26.17     535.00
 26.27     571.00
 26.37     536.00
 26.47     569.00
 26.57     566.00
 26.67     552.00
 26.77     551.30
 26.87     561.00
 26.97     579.70
 27.07     568.00
 27.17     551.00
 27.27     564.00
 27.37     604.00
 27.47     534.00
 27.57     556.43
 27.67     550.79
 27.77     538.63
 27.87     599.00
 27.97     691.00
 28.07     767.00
 28.17     881.00
 28.27     959.00
 28.37     881.00
 28.47     827.00
 28.57     748.33
 28.67     707.00
 28.77     736.28
 28.87     809.00
 28.97     889.14
 29.07     756.51
 29.17     743.00
 29.27     628.00
 29.37     595.00
 29.47     597.00
 29.57     585.00
 29.67     622.00
 29.77     530.90
 29.87     586.00
 29.97     549.00
 30.07     525.10
 30.17     582.00
 30.27     577.91
 30.37     533.75
 30.47     505.64
 30.57     575.00
 30.67     574.01
 30.77     563.98
 30.87     618.00
 30.97     570.25
 31.07     599.26
 31.17     579.00
 31.27     555.00
 31.37     563.00
 31.47     554.58
 31.57     502.56
 31.67     568.53
 31.77     505.19
 31.87     492.78
 31.97     524.25
 32.07     528.00
 32.17     486.24
 32.27     515.38
 32.37     572.00
 32.47     530.34
 32.57     561.00
 32.67     509.00
 32.77     566.00
 32.87     495.00
 32.97     509.00
 33.07     576.00
 33.17     562.00
 33.27     575.45
 33.37     537.41
 33.47     579.00
 33.57     574.00
 33.67     675.88
 33.77     735.79
 33.87     888.90
 33.97    1031.55
 34.07    1086.00
 34.17     995.00
 34.27     847.56
 34.37     756.88
 34.47     617.00
 34.57     574.47
 34.67     529.13
 34.77     546.00
 34.87     561.00
 34.97     568.00
 35.07     533.00
 35.17     496.53
 35.27     535.00
 35.37     531.00
 35.47     502.58
 35.57     537.00
 35.67     509.00
 35.77     513.85
 35.87     544.00
 35.97     509.89
 36.07     502.00
 36.17     519.00
 36.27     485.14
 36.37     498.00
 36.47     485.00
 36.57     501.00
 36.67     538.91
 36.77     520.00
 36.87     533.00
 36.97     507.00
 37.07     534.00
 37.17     486.00
 37.27     478.26
 37.37     497.54
 37.47     560.00
 37.57     489.16
 37.67     495.00
 37.77     519.25
 37.87     541.17
 37.97     532.00
 38.07     496.00
 38.17     483.98
 38.27     516.20
 38.37     482.00
 38.47     501.00
 38.57     524.26
 38.67     497.00
 38.77     483.36
 38.87     479.00
 38.97     510.00
 39.07     501.00
 39.17     494.00
 39.27     534.46
 39.37     503.00
 39.47     508.00
 39.57     533.50
 39.67     498.00
 39.77     547.00
 39.87     484.21
 39.97     503.00
 40.07     499.00
 40.17     511.00
 40.27     547.20
 40.37     454.00
 40.47     511.00
 40.57     551.90
 40.67     502.00
 40.77     533.00
 40.87     512.00
 40.97     482.00
 41.07     474.24
 41.17     503.00
 41.27     526.88
 41.37     522.00
 41.47     527.00
 41.57     516.00
 41.67     511.00
 41.77     551.36
 41.87     527.00
 41.97     512.00
 42.07     505.00
 42.17     525.00
 42.27     509.00
 42.37     573.00
 42.47     592.00
 42.57     592.00
 42.67     631.76
 42.77     634.61
 42.87     597.00
 42.97     545.72
 43.07     512.77
 43.17     539.52
 43.27     490.00
 43.37     508.00
 43.47     471.27
 43.57     489.53
 43.67     455.00
 43.77     532.14
 43.87     470.00
 43.97     519.00
 44.07     532.00
 44.17     501.00
 44.27     487.00
 44.37     505.00
 44.47     509.00
 44.57     503.99
 44.67     515.00
 44.77     494.00
 44.87     524.54
 44.97     500.00
 45.07     490.00
 45.17     498.00
 45.27     468.70
 45.37     499.00
 45.47     508.00
 45.57     467.11
 45.67     541.89
 45.77     511.00
 45.87     548.45
 45.97     467.00
 46.07     505.00
 46.17     519.00
 46.27     481.00
 46.37     502.84
 46.47     486.00
 46.57     529.00
 46.67     467.00
 46.77     504.00
 46.87     478.83
 46.97     509.00
 47.07     524.00
 47.17     515.00
 47.27     507.00
 47.37     553.00
 47.47     535.55
 47.57     582.00
 47.67     611.60
 47.77     606.00
 47.87     550.18
 47.97     581.00
 48.07     604.24
 48.17     563.00
 48.27     564.00
 48.37     534.00
 48.47     525.00
 48.57     562.56
 48.67     518.00
 48.77     511.00
 48.87     530.00
 48.97     523.00
 49.07     553.00
 49.17     569.24
 49.27     588.29
 49.37     623.56
 49.47     675.00
 49.57     778.00
 49.67     933.09
 49.77    1162.00
 49.87    1445.00
 49.97    1945.00
 50.07    2283.00
 50.17    2469.00
 50.27    2576.00
 50.37    2322.00
 50.47    1911.00
 50.57    1524.38
 50.67    1176.19
 50.77     854.33
 50.87     712.00
 50.97     638.49
 51.07     648.00
 51.17     641.00
 51.27     592.00
 51.37     558.00
 51.47     615.00
 51.57     587.00
 51.67     541.60
 51.77     512.00
 51.87     553.00
 51.97     556.06
 52.07     576.00
 52.17     558.00
 52.27     519.00
 52.37     546.78
 52.47     580.00
 52.57     551.00
 52.67     562.95
 52.77     621.00
 52.87     628.00
 52.97     666.08
 53.07     858.00
 53.17     863.55
 53.27    1025.59
 53.37    1179.00
 53.47    1229.00
 53.57    1183.00
 53.67    1174.90
 53.77     965.00
 53.87     933.24
 53.97     733.04
 54.07     717.16
 54.17     600.00
 54.27     606.52
 54.37     568.66
 54.47     597.00
 54.57     558.38
 54.67     530.24
 54.77     584.00
 54.87     586.00
 54.97     586.00
 55.07     556.95
 55.17     571.26
 55.27     535.00
 55.37     566.00
 55.47     573.65
 55.57     558.00
 55.67     580.67
 55.77     616.17
 55.87     623.31
 55.97     636.54
 56.07     730.53
 56.17     711.00
 56.27     919.77
 56.37    1105.00
 56.47    1346.00
 56.57    1877.68
 56.67    2136.00
 56.77    2488.00
 56.87    2583.00
 56.97    2627.00
 57.07    2330.19
 57.17    2095.00
 57.27    1688.32
 57.37    1303.00
 57.47    1074.00
 57.57     856.00
 57.67     807.00
 57.77     669.00
 57.87     657.00
 57.97     694.00
 58.07     654.00
 58.17     685.00
 58.27     751.00
 58.37     873.00
 58.47     991.69
 58.57    1076.78
 58.67    1207.10
 58.77    1317.55
 58.87    1531.00
 58.97    1550.00
 59.07    1557.00
 59.17    1485.99
 59.27    1432.00
 59.37    1285.13
 59.47    1247.00
 59.57    1172.00
 59.67    1124.49
 59.77    1170.64
 59.87    1206.00
 59.97    1355.00
 60.07    1457.00
 60.17    1596.00
 60.27    1658.00
 60.37    1474.71
 60.47    1376.00
 60.57    1221.00
 60.67    1157.00
 60.77     934.00
 60.87     799.00
 60.97     751.37
 61.07     657.00
 61.17     648.48
 61.27     647.00
 61.37     640.00
 61.47     761.00
 61.57     718.00
 61.67     863.00
 61.77     975.00
 61.87    1074.17
 61.97    1241.00
 62.07    1360.11
 62.17    1422.00
 62.27    1461.69
 62.37    1348.00
 62.47    1191.00
 62.57    1054.00
 62.67     937.00
 62.77     800.22
 62.87     726.00
 62.97     650.00
 63.07     571.00
 63.17     574.00
 63.27     554.00
 63.37     597.00
 63.47     524.00
 63.57     605.00
 63.67     590.00
 63.77     550.88
 63.87     615.56
 63.97     668.03
 64.07     717.79
 64.17     709.47
 64.27     839.00
 64.37     907.00
 64.47     907.00
 64.57     954.06
 64.67    1081.00
 64.77    1035.88
 64.87    1013.67
 64.97     942.00
 65.07     841.00
 65.17     769.00
 65.27     756.00
 65.37     664.26
 65.47     630.00
 65.57     618.45
 65.67     635.00
 65.77     629.58
 65.87     547.00
 65.97     553.00
 66.07     559.00
 66.17     605.32
 66.27     560.00
 66.37     567.00
 66.47     547.00
 66.57     573.00
 66.67     546.00
 66.77     561.00
 66.87     551.00
 66.97     635.71
 67.07     619.00
 67.17     679.00
 67.27     741.00
 67.37     923.66
 67.47    1070.00
 67.57    1301.30
 67.67    1492.00
 67.77    1782.00
 67.87    2069.00
 67.97    2335.00
 68.07    2499.00
 68.17    2521.00
 68.27    2299.72
 68.37    2123.00
 68.47    1817.00
 68.57    1592.00
 68.67    1265.00
 68.77    1008.00
 68.87     884.00
 68.97     759.42
 69.07     739.69
 69.17     639.00
 69.27     680.00
 69.37     625.00
 69.47     579.00
 69.57     613.00
 69.67     617.00
 69.77     585.00
 69.87     608.00
 69.97     516.00
 70.07     594.49
 70.17     545.16
 70.27     592.00
 70.37     602.05
 70.47     612.00
 70.57     529.28
 70.67     605.17
 70.77     597.14
 70.87     554.00
 70.97     604.00
 71.07     721.00
 71.17     760.00
 71.27     777.00
 71.37     947.14
 71.47    1120.00
 71.57    1226.00
 71.67    1355.00
 71.77    1678.68
 71.87    1802.00
 71.97    1831.55
 72.07    1911.00
 72.17    1925.00
 72.27    1830.64
 72.37    1651.01
 72.47    1406.19
 72.57    1345.00
 72.67    1151.00
 72.77    1046.00
 72.87     968.00
 72.97     879.00
 73.07     863.64
 73.17     749.00
 73.27     730.99
 73.37     698.00
 73.47     602.00
 73.57     602.00
 73.67     615.46
 73.77     638.00
 73.87     598.26
 73.97     625.00
 74.07     601.00
 74.17     533.55
 74.27     604.00
 74.37     591.80
 74.47     602.00
 74.57     624.00
 74.67     539.10
 74.77     622.00
 74.87     623.00
 74.97     521.89
 75.07     542.08
 75.17     580.64
 75.27     556.76
 75.37     553.44
 75.47     554.00
 75.57     535.39
 75.67     566.00
 75.77     565.00
 75.87     564.00
 75.97     640.00
 76.07     629.00
 76.17     639.29
 76.27     676.00
 76.37     672.00
 76.47     675.00
 76.57     705.00
 76.67     663.27
 76.77     684.00
 76.87     706.55
 76.97     664.16
 77.07     653.35
 77.17     570.92
 77.27     561.00
 77.37     569.00
 77.47     554.00
 77.57     537.00
 77.67     590.00
 77.77     536.51
 77.87     574.00
 77.97     517.00
 78.07     500.17
 78.17     507.00
 78.27     483.00
 78.37     528.00
 78.47     572.60
 78.57     506.00
 78.67     570.13
 78.77     560.00
 78.87     528.00
 78.97     492.00
 79.07     546.20
 79.17     525.00
 79.27     549.06
 79.37     537.00
 79.47     527.00
 79.57     532.00
 79.67     500.70
 79.77     551.33
 79.87     538.00
 79.97     543.00
 80.07     584.77
 80.17     565.58
 80.27     566.00
 80.37     580.29
 80.47     565.09
 80.57     669.00
 80.67     616.00
 80.77     663.00
 80.87     710.71
 80.97     689.45
 81.07     730.00
 81.17     782.79
 81.27     751.00
 81.37     747.00
 81.47     782.54
 81.57     704.10
 81.67     767.00
 81.77     738.00
 81.87     723.00
 81.97     721.00
 82.07     636.00
 82.17     629.83
 82.27     686.00
 82.37     638.00
 82.47     640.10
 82.57     547.00
 82.67     631.00
 82.77     573.84
 82.87     578.20
 82.97     574.00
 83.07     564.92
 83.17     566.00
 83.27     536.00
 83.37     542.00
 83.47     534.00
 83.57     588.33
 83.67     584.79
 83.77     536.00
 83.87     572.00
 83.97     561.42
 84.07     577.00
 84.17     558.95
 84.27     569.00
 84.37     599.75
 84.47     564.42
 84.57     564.43
 84.67     531.69
 84.77     579.00
 84.87     555.00
 84.97     500.82
 85.07     496.40
 85.17     528.00
 85.27     535.71
 85.37     528.00
 85.47     544.06
 85.57     528.59
 85.67     517.00
 85.77     542.00
 85.87     532.00
 85.97     550.00
 86.07     571.00
 86.17     538.00
 86.27     548.00
 86.37     584.34
 86.47     527.00
 86.57     564.00
 86.67     588.00
 86.77     595.00
 86.87     572.00
 86.97     637.00
 87.07     677.00
 87.17     646.00
 87.27     647.00
 87.37     628.00
 87.47     647.07
 87.57     664.20
 87.67     585.61
 87.77     660.00
 87.87     602.00
 87.97     612.00
 88.07     546.12
 88.17     593.13
 88.27     584.00
 88.37     597.00
 88.47     593.00
 88.57     589.00
 88.67     608.57
 88.77     565.00
 88.87     614.00
 88.97     561.00
 89.07     591.19
 89.17     596.00
 89.27     592.00
 89.37     632.00
 89.47     563.51
 89.57     625.97
 89.67     597.00
 89.77     555.57
 89.87     590.63
 89.97     605.85
 90.07     580.00
 90.17     540.71
 90.27     558.41
 90.37     502.26
 90.47     539.00
 90.57     571.56
 90.67     577.00
 90.77     491.99
 90.87     484.00
 90.97     500.00
 91.07     522.00
 91.17     542.94
 91.27     539.00
 91.37     489.19
 91.47     520.01
 91.57     489.00
 91.67     562.43
 91.77     538.03
 91.87     533.77
 91.97     564.00
 92.07     541.00
 92.17     610.70
 92.27     585.00
 92.37     623.00
 92.47     598.41
 92.57     643.74
 92.67     642.00
 92.77     695.00
 92.87     726.00
 92.97     757.00
 93.07     716.94
 93.17     768.00
 93.27     837.00
 93.37     774.72
 93.47     773.00
 93.57     825.00
 93.67     864.98
 93.77     850.95
 93.87     809.31
 93.97     852.00
 94.07     836.00
 94.17     848.20
 94.27     857.00
 94.37     908.00
 94.47     914.00
 94.57     918.00
 94.67     897.00
 94.77     890.00
 94.87     907.00
 94.97     848.00
 95.07     836.21
 95.17     858.00
 95.27     884.00
 95.37     826.16
 95.47     795.25
 95.57     722.14
 95.67     697.00
 95.77     693.00
 95.87     715.00
 95.97     689.00
 96.07     727.90
 96.17     687.00
 96.27     691.31
 96.37     764.00
 96.47     803.00
 96.57     823.60
 96.67     953.64
 96.77     939.90
 96.87    1052.00
 96.97    1121.77
 97.07    1222.00
 97.17    1279.00
 97.27    1379.00
 97.37    1424.00
 97.47    1355.00
 97.57    1411.00
 97.67    1432.00
 97.77    1323.42
 97.87    1304.10
 97.97    1290.12
 98.07    1180.13
 98.17    1183.00
 98.27    1089.00
 98.37    1040.82
 98.47     905.00
 98.57     912.00
 98.67     854.00
 98.77     860.04
 98.87     772.00
 98.97     795.90
 99.07     808.00
 99.17     890.65
 99.27     833.78
 99.37     942.00
 99.47     968.72
 99.57    1023.86
 99.67    1190.00
 99.77    1282.00
 99.87    1431.07
 99.97    1499.00
100.07    1633.00
100.17    1693.00
100.27    1744.15
100.37    1905.00
100.47    2009.00
100.57    2084.00
100.67    2004.06
100.77    2064.06
100.87    2075.00
100.97    1960.76
101.07    2006.00
101.17    1943.00
101.27    1811.00
101.37    1771.87
101.47    1620.00
101.57    1528.00
101.67    1408.00
101.77    1361.00
101.87    1277.57
101.97    1190.91
102.07    1218.00
102.17    1203.89
102.27    1067.00
102.37    1116.86
102.47    1132.00
102.57    1065.38
102.67    1045.00
102.77    1075.22
102.87     961.00
102.97     954.52
103.07     910.00
103.17     847.38
103.27     848.00
103.37     803.00
103.47     728.95
103.57     737.00
103.67     729.00
103.77     667.00
103.87     635.00
103.97     656.00
104.07     605.00
104.17     536.22
104.27     577.00
104.37     548.00
104.47     519.30
104.57     561.00
104.67     528.02
104.77     507.73
104.87     497.85
104.97     580.00
105.07     517.54
105.17     515.67
105.27     565.00
105.37     530.00
105.47     518.00
105.57     532.00
105.67     535.60
105.77     557.98
105.87     566.00
105.97     582.00
106.07     598.00
106.17     572.00
106.27     567.00
106.37     581.00
106.47     594.59
106.57     609.00
106.67     625.00
106.77     634.00
106.87     616.00
106.97     688.78
107.07     722.77
107.17     685.00
107.27     740.00
107.37     680.37
107.47     663.00
107.57     653.00
107.67     685.00
107.77     722.49
107.87     722.42
107.97     698.00
108.07     697.00
108.17     668.00
108.27     632.00
108.37     681.00
108.47     715.19
108.57     649.83
108.67     693.00
108.77     709.11
108.87     666.00
108.97     726.81
109.07     639.30
109.17     680.00
109.27     687.00
109.37     643.00
109.47     661.00
109.57     660.97
109.67     573.00
109.77     629.00
109.87     560.00
109.97     616.00
110.07     579.00
110.17     553.21
110.27     564.00
110.37     511.45
110.47     553.00
110.57     552.00
110.67     536.60
110.77     515.00
110.87     537.00
110.97     550.00
111.07     568.00
111.17     559.00
111.27     576.00
111.37     523.74
111.47     524.47
111.57     575.42
111.67     527.49
111.77     581.34
111.87     563.00
111.97     548.00
112.07     552.57
112.17     576.00
112.27     541.00
112.37     599.00
112.47     601.29
112.57     570.26
112.67     630.00
112.77     625.00
112.87     631.00
112.97     698.00
113.07     646.15
113.17     678.00
113.27     675.00
113.37     753.00
113.47     797.00
113.57     801.00
113.67     821.73
113.77     896.45
113.87     901.00
113.97     945.31
114.07     999.00
114.17    1083.33
114.27    1122.00
114.37    1195.00
114.47    1339.39
114.57    1368.14
114.67    1602.00
114.77    1703.00
114.87    1841.94
114.97    2164.00
115.07    2375.00
115.17    2568.00
115.27    2822.00
115.37    3107.00
115.47    3261.00
115.57    3778.00
115.67    4235.34
115.77    4526.00
115.87    4745.00
115.97    5302.00
116.07    5669.21
116.17    6019.00
116.27    6319.00
116.37    6680.14
116.47    6903.38
116.57    7001.00
116.67    7009.00
116.77    6891.30
116.87    6940.17
116.97    6739.00
117.07    6259.00
117.17    6081.00
117.27    5670.00
117.37    5251.00
117.47    5177.79
117.57    4607.00
117.67    4227.00
117.77    4028.00
117.87    3421.32
117.97    3261.31
118.07    2972.00
118.17    2638.00
118.27    2303.25
118.37    2070.00
118.47    1712.00
118.57    1582.00
118.67    1486.00
118.77    1271.00
118.87    1169.18
118.97    1052.00
119.07     944.31
119.17     905.78
119.27     820.96
119.37     820.00
119.47     768.00
119.57     661.02
119.67     686.94
119.77     667.35
119.87     635.00
119.97     616.20
120.07     609.00
120.17     616.00
120.27     593.71
120.37     550.00
120.47     582.00
120.57     603.81
120.67     605.00
120.77     593.40
120.87     602.63
120.97     622.00
121.07     590.49
121.17     584.51
121.27     618.74
121.37     566.00
121.47     584.12
121.57     613.00
121.67     565.00
121.77     599.00
121.87     580.00
121.97     637.00
122.07     573.00
122.17     637.00
122.27     618.01
122.37     635.00
122.47     631.00
122.57     609.59
122.67     671.93
122.77     595.96
122.87     641.00
122.97     670.59
123.07     585.00
123.17     650.00
123.27     649.00
123.37     625.00
123.47     619.82
123.57     616.97
123.67     616.54
123.77     641.00
123.87     568.00
123.97     597.00
124.07     605.00
124.17     604.00
124.27     613.00
124.37     573.55
124.47     583.93
124.57     565.63
124.67     583.00
124.77     613.18
124.87     601.82
124.97     624.00
