  9.97     525.50
 10.07     525.90
 10.17     668.00
 10.27     570.54
 10.37     556.40
 10.47     557.00
 10.57     633.00
 10.67     596.84
 10.77     593.32
 10.87     585.00
 10.97     584.67
 11.07     603.00
 11.17     519.86
 11.27     628.00
 11.37     591.00
 11.47     610.49
 11.57     590.00
 11.67     582.20
 11.77     643.00
 11.87     602.00
 11.97     661.33
 12.07     648.00
 12.17     651.00
 12.27     719.00
 12.37     703.88
 12.47     636.00
 12.57     562.00
 12.67     601.33
 12.77     588.00
 12.87     573.00
 12.97     534.79
 13.07     527.57
 13.17     527.06
 13.27     528.00
 13.37     559.00
 13.47     527.72
 13.57     534.00
 13.67     537.00
 13.77     523.00
 13.87     562.00
 13.97     600.00
 14.07     603.64
 14.17     551.00
 14.27     595.95
 14.37     531.34
 14.47     557.58
 14.57     507.00
 14.67     565.00
 14.77     527.00
 14.87     603.92
 14.97     558.00
 15.07     565.33
 15.17     536.76
 15.27     551.00
 15.37     530.12
 15.47     549.00
 15.57     594.00
 15.67     546.00
 15.77     494.00
 15.87     552.00
 15.97     546.00
 16.07     584.00
 16.17     558.00
 16.27     581.00
 16.37     556.00
 16.47     545.00
 16.57     545.00
 16.67     546.00
 16.77     587.00
 16.87     562.00
 16.97     576.00
 17.07     533.00
 17.17     548.17
 17.27     547.00
 17.37     608.48
 17.47     544.00
 17.57     569.00
 17.67     604.15
 17.77     556.00
 17.87     536.00
 17.97     537.00
 18.07     616.00
 18.17     578.00
 18.27     581.00
 18.37     592.35
 18.47     513.00
 18.57     537.93
 18.67     529.00
 18.77     513.00
 18.87     577.00
 18.97     561.00
 19.07     578.73
 19.17     567.00
 19.27     521.00
 19.37     554.00
 19.47     565.00
 19.57     560.26
 19.67     547.00
 19.77     595.00
 19.87     550.57
 19.97     576.00
 20.07     550.00
 20.17     607.09
 20.27     567.00
 20.37     563.00
 20.47     581.18
 20.57     516.00
 20.67     566.96
 20.77     519.00
 20.87     535.86
 20.97     552.67
 21.07     554.00
 21.17     504.00
 21.27     592.45
 21.37     555.00
 21.47     519.00
 21.57     590.00
 21.67     568.05
 21.77     586.17
 21.87     538.11
 21.97     566.00
 22.07     601.00
 22.17     561.00
 22.27     526.00
 22.37     531.00
 22.47     541.00
 22.57     533.00
 22.67     592.51
 22.77     591.00
 22.87     543.71
 22.97     504.00
 23.07     564.26
 23.17     549.00
 23.27     615.00
 23.37     553.00
 23.47     546.00
 23.57     569.00
 23.67     562.00
 23.77     522.27
 23.87     581.00
 23.97     558.00
 24.07     601.00
 24.17     627.00
 24.27     537.74
 24.37     558.00
 24.47     612.00
 24.57     585.84
 24.67     614.54
 24.77     650.05
 24.87     648.67
 24.97     663.00
 25.07     625.00
 25.17     634.00
 25.27     609.90
 25.37     606.00
 25.47     547.00
 25.57     590.00
 25.67     583.00
 25.77     552.66
 25.87     590.95
 25.97     619.00
 26.07     594.00
 26.17     567.14
 26.27     613.00
 26.37     575.00
 26.47     615.00
 26.57     576.00
 26.67     550.64
 26.77     572.11
 26.87     511.40
 26.97     603.35
 27.07     587.00
 27.17     593.00
 27.27     607.00
 27.37     554.00
 27.47     586.75
 27.57     583.00
 27.67     622.00
 27.77     586.70
 27.87     636.00
 27.97     695.00
 28.07     750.00
 28.17     846.00
 28.27     935.00
 28.37     995.37
 28.47     938.17
 28.57     802.00
 28.67     772.00
 28.77     762.00
 28.87     825.00
 28.97     845.00
 29.07     845.00
 29.17     731.00
 29.27     723.45
 29.37     686.19
 29.47     592.06
 29.57     609.00
 29.67     627.00
 29.77     570.00
 29.87     615.70
 29.97     524.92
 30.07     608.00
 30.17     594.39
 30.27     572.21
 30.37     528.22
 30.47     589.00
 30.57     613.00
 30.67     574.00
 30.77     663.00
 30.87     570.30
 30.97     629.00
 31.07     633.06
 31.17     579.80
 31.27     628.94
 31.37     572.00
 31.47     577.00
 31.57     581.38
 31.67     549.24
 31.77     511.00
 31.87     534.00
 31.97     519.00
 32.07     547.00
 32.17     562.37
 32.27     496.51
 32.37     516.40
 32.47     545.00
 32.57     501.97
 32.67     516.49
 32.77     558.47
 32.87     534.00
 32.97     555.00
 33.07     560.78
 33.17     579.00
 33.27     563.00
 33.37     515.56
 33.47     574.00
 33.57     589.00
 33.67     641.00
 33.77     710.00
 33.87     759.00
 33.97     866.00
 34.07    1008.00
 34.17     973.00
 34.27     994.38
 34.37     890.66
 34.47     719.57
 34.57     692.00
 34.67     593.00
 34.77     602.00
 34.87     566.19
 34.97     567.00
 35.07     516.54
 35.17     535.00
 35.27     535.00
 35.37     533.00
 35.47     507.19
 35.57     536.00
 35.67     556.00
 35.77     557.64
 35.87     519.00
 35.97     495.00
 36.07     528.00
 36.17     536.00
 36.27     492.00
 36.37     532.63
 36.47     510.00
 36.57     545.25
 36.67     517.03
 36.77     519.00
 36.87     500.00
 36.97     518.51
 37.07     485.00
 37.17     470.00
 37.27     526.86
 37.37     544.37
 37.47     533.68
 37.57     505.00
 37.67     528.00
 37.77     509.00
 37.87     484.00
 37.97     539.05
 38.07     534.16
 38.17     530.00
 38.27     517.00
 38.37     492.00
 38.47     525.00
 38.57     539.00
 38.67     478.00
 38.77     534.70
 38.87     511.00
 38.97     507.00
 39.07     499.42
 39.17     502.13
 39.27     524.45
 39.37     495.00
 39.47     470.00
 39.57     508.00
 39.67     517.53
 39.77     462.22
 39.87     516.00
 39.97     493.00
 40.07     484.00
 40.17     484.00
 40.27     518.76
 40.37     504.00
 40.47     484.00
 40.57     464.00
 40.67     504.61
 40.77     515.40
 40.87     452.00
 40.97     500.00
 41.07     516.00
 41.17     477.00
 41.27     503.02
 41.37     496.00
 41.47     479.00
 41.57     541.27
 41.67     484.00
 41.77     545.00
 41.87     543.79
 41.97     508.00
 42.07     524.00
 42.17     553.77
 42.27     527.50
 42.37     573.68
 42.47     517.12
 42.57     555.00
 42.67     551.00
 42.77     623.63
 42.87     607.38
 42.97     593.00
 43.07     612.82
 43.17     557.00
 43.27     503.00
 43.37     523.00
 43.47     525.00
 43.57     509.00
 43.67     521.31
 43.77     540.00
 43.87     462.45
 43.97     496.07
 44.07     483.00
 44.17     531.00
 44.27     479.00
 44.37     452.70
 44.47     511.00
 44.57     476.00
 44.67     465.00
 44.77     460.00
 44.87     485.00
 44.97     503.00
 45.07     520.35
 45.17     514.16
 45.27     522.54
 45.37     478.00
 45.47     528.46
 45.57     490.00
 45.67     497.00
 45.77     475.00
 45.87     511.95
 45.97     463.33
 46.07     524.00
 46.17     498.00
 46.27     497.96
 46.37     500.00
 46.47     489.63
 46.57     497.11
 46.67     489.21
 46.77     480.30
 46.87     482.00
 46.97     496.40
 47.07     494.00
 47.17     476.00
 47.27     519.28
 47.37     484.00
 47.47     542.95
 47.57     501.00
 47.67     574.00
 47.77     562.00
 47.87     563.00
 47.97     602.82
 48.07     631.00
 48.17     576.00
 48.27     544.00
 48.37     577.00
 48.47     551.00
 48.57     549.00
 48.67     515.91
 48.77     541.00
 48.87     543.24
 48.97     504.00
 49.07     500.48
 49.17     504.36
 49.27     548.76
 49.37     522.00
 49.47     538.45
 49.57     628.99
 49.67     734.83
 49.77     862.79
 49.87    1015.23
 49.97    1250.05
 50.07    1634.00
 50.17    2083.92
 50.27    2311.00
 50.37    2298.00
 50.47    2184.00
 50.57    1847.87
 50.67    1548.06
 50.77    1150.00
 50.87     947.20
 50.97     762.29
 51.07     631.00
 51.17     688.00
 51.27     627.00
 51.37     638.00
 51.47     572.09
 51.57     597.98
 51.67     556.02
 51.77     562.00
 51.87     537.60
 51.97     561.00
 52.07     578.00
 52.17     562.36
 52.27     533.00
 52.37     559.00
 52.47     543.00
 52.57     555.00
 52.67     534.23
 52.77     565.00
 52.87     580.00
 52.97     647.00
 53.07     677.00
 53.17     739.00
 53.27     836.51
 53.37     904.00
 53.47     987.00
 53.57    1149.00
 53.67    1102.00
 53.77    1205.79
 53.87    1100.76
 53.97     957.22
 54.07     945.00
 54.17     862.00
 54.27     711.94
 54.37     607.00
 54.47     579.96
 54.57     591.88
 54.67     574.70
 54.77     566.00
 54.87     605.00
 54.97     529.46
 55.07     589.00
 55.17     574.00
 55.27     612.00
 55.37     575.00
 55.47     569.74
 55.57     554.00
 55.67     571.00
 55.77     606.21
 55.87     592.00
 55.97     601.00
 56.07     665.00
 56.17     713.00
 56.27     778.00
 56.37     968.36
 56.47    1134.55
 56.57    1312.00
 56.67    1657.62
 56.77    2010.92
 56.87    2231.00
 56.97    2376.20
 57.07    2592.00
 57.17    2385.00
 57.27    2157.00
 57.37    1823.33
 57.47    1659.00
 57.57    1182.00
 57.67    1031.00
 57.77     916.43
 57.87     829.00
 57.97     766.93
 58.07     680.00
 58.17     695.00
 58.27     731.00
 58.37     773.00
 58.47     697.00
 58.57     810.00
 58.67     858.00
 58.77    1004.00
 58.87    1096.00
 58.97    1162.80
 59.07    1261.20
 59.17    1325.00
 59.27    1239.48
 59.37    1216.00
 59.47    1233.14
 59.57    1258.00
 59.67    1221.00
 59.77    1178.00
 59.87    1149.00
 59.97    1224.64
 60.07    1248.33
 60.17    1357.00
 60.27    1463.27
 60.37    1463.74
 60.47    1513.57
 60.57    1547.00
 60.67    1422.00
 60.77    1220.00
 60.87    1029.44
 60.97     935.00
 61.07     816.00
 61.17     721.00
 61.27     652.00
 61.37     718.00
 61.47     730.00
 61.57     668.96
 61.67     744.14
 61.77     860.96
 61.87     881.00
 61.97     979.00
 62.07    1064.00
 62.17    1234.00
 62.27    1337.67
 62.37    1307.23
 62.47    1322.00
 62.57    1117.00
 62.67    1170.00
 62.77     982.00
 62.87     866.79
 62.97     757.00
 63.07     659.00
 63.17     609.00
 63.27     605.00
 63.37     591.00
 63.47     608.00
 63.57     569.00
 63.67     540.00
 63.77     555.00
 63.87     586.00
 63.97     597.00
 64.07     612.69
 64.17     720.00
 64.27     701.23
 64.37     759.00
 64.47     786.66
 64.57     918.00
 64.67     900.00
 64.77     941.00
 64.87     996.00
 64.97     933.81
 65.07     964.00
 65.17     922.00
 65.27     900.00
 65.37     757.00
 65.47     703.00
 65.57     679.00
 65.67     627.49
 65.77     674.00
 65.87     588.53
 65.97     579.00
 66.07     577.62
 66.17     592.00
 66.27     554.99
 66.37     548.00
 66.47     565.00
 66.57     519.84
 66.67     608.00
 66.77     577.00
 66.87     602.00
 66.97     600.85
 67.07     629.00
 67.17     609.00
 67.27     659.00
 67.37     776.68
 67.47     825.00
 67.57     943.26
 67.67    1137.00
 67.77    1329.00
 67.87    1574.00
 67.97    1798.00
 68.07    1966.00
 68.17    2266.07
 68.27    2417.00
 68.37    2313.00
 68.47    2222.00
 68.57    2157.00
 68.67    1857.00
 68.77    1597.00
 68.87    1336.91
 68.97    1098.00
 69.07    1015.86
 69.17     788.00
 69.27     760.00
 69.37     667.33
 69.47     668.00
 69.57     653.82
 69.67     587.16
 69.77     609.00
 69.87     596.14
 69.97     614.36
 70.07     566.00
 70.17     599.07
 70.27     566.42
 70.37     577.22
 70.47     528.00
 70.57     522.00
 70.67     552.00
 70.77     588.00
 70.87     603.00
 70.97     574.00
 71.07     676.39
 71.17     715.39
 71.27     677.00
 71.37     785.00
 71.47     862.00
 71.57     918.00
 71.67    1058.00
 71.77    1279.00
 71.87    1394.00
 71.97    1584.00
 72.07    1757.22
 72.17    1833.00
 72.27    1761.00
 72.37    1781.31
 72.47    1717.00
 72.57    1639.53
 72.67    1450.00
 72.77    1305.03
 72.87    1152.00
 72.97     923.00
 73.07     897.12
 73.17     828.34
 73.27     738.00
 73.37     704.00
 73.47     682.00
 73.57     634.00
 73.67     608.00
 73.77     580.28
 73.87     635.00
 73.97     559.00
 74.07     555.00
 74.17     559.12
 74.27     564.88
 74.37     597.00
 74.47     600.00
 74.57     534.52
 74.67     645.00
 74.77     601.00
 74.87     660.00
 74.97     595.00
 75.07     561.81
 75.17     605.76
 75.27     598.52
 75.37     566.36
 75.47     578.00
 75.57     511.13
 75.67     571.61
 75.77     545.00
 75.87     559.86
 75.97     615.00
 76.07     547.00
 76.17     573.00
 76.27     561.00
 76.37     641.00
 76.47     689.00
 76.57     681.00
 76.67     695.99
 76.77     718.00
 76.87     678.00
 76.97     693.00
 77.07     617.16
 77.17     673.00
 77.27     643.00
 77.37     597.00
 77.47     605.00
 77.57     564.00
 77.67     521.00
 77.77     503.00
 77.87     478.00
 77.97     491.00
 78.07     490.00
 78.17     480.75
 78.27     539.00
 78.37     510.41
 78.47     501.23
 78.57     475.00
 78.67     523.25
 78.77     493.26
 78.87     481.00
 78.97     543.62
 79.07     514.00
 79.17     508.00
 79.27     529.00
 79.37     516.00
 79.47     542.00
 79.57     480.00
 79.67     437.00
 79.77     532.81
 79.87     512.00
 79.97     478.73
 80.07     511.00
 80.17     495.00
 80.27     514.35
 80.37     575.33
 80.47     581.61
 80.57     549.22
 80.67     558.00
 80.77     559.00
 80.87     638.00
 80.97     675.34
 81.07     617.71
 81.17     617.00
 81.27     646.00
 81.37     732.12
 81.47     736.00
 81.57     726.00
 81.67     715.00
 81.77     724.27
 81.87     699.00
 81.97     737.96
 82.07     710.00
 82.17     702.82
 82.27     665.00
 82.37     647.00
 82.47     615.81
 82.57     638.00
 82.67     598.00
 82.77     547.00
 82.87     565.00
 82.97     546.22
 83.07     556.00
 83.17     533.00
 83.27     510.00
 83.37     493.41
 83.47     522.00
 83.57     504.67
 83.67     542.00
 83.77     570.00
 83.87     532.00
 83.97     584.11
 84.07     580.33
 84.17     519.90
 84.27     546.00
 84.37     547.35
 84.47     533.74
 84.57     541.78
 84.67     567.00
 84.77     530.99
 84.87     526.00
 84.97     533.00
 85.07     501.00
 85.17     530.00
 85.27     512.00
 85.37     544.00
 85.47     502.00
 85.57     514.84
 85.67     504.00
 85.77     509.00
 85.87     488.00
 85.97     486.00
 86.07     540.24
 86.17     494.00
 86.27     544.00
 86.37     520.00
 86.47     514.82
 86.57     522.00
 86.67     514.00
 86.77     523.00
 86.87     527.00
 86.97     581.00
 87.07     557.00
 87.17     595.15
 87.27     609.98
 87.37     566.76
 87.47     568.00
 87.57     593.00
 87.67     620.00
 87.77     656.00
 87.87     589.25
 87.97     658.00
 88.07     564.00
 88.17     577.83
 88.27     609.05
 88.37     583.88
 88.47     612.00
 88.57     600.00
 88.67     591.46
 88.77     590.46
 88.87     533.20
 88.97     562.73
 89.07     522.00
 89.17     544.00
 89.27     519.30
 89.37     567.00
 89.47     586.00
 89.57     576.00
 89.67     610.00
 89.77     580.84
 89.87     607.00
 89.97     558.00
 90.07     502.00
 90.17     549.00
 90.27     578.00
 90.37     512.00
 90.47     529.00
 90.57     566.69
 90.67     507.94
 90.77     485.00
 90.87     510.00
 90.97     526.00
 91.07     472.05
 91.17     538.00
 91.27     492.00
 91.37     507.00
 91.47     536.39
 91.57     520.21
 91.67     495.37
 91.77     492.00
 91.87     539.59
 91.97     500.39
 92.07     513.00
 92.17     561.22
 92.27     492.00
 92.37     562.00
 92.47     586.00
 92.57     561.00
 92.67     561.00
 92.77     576.00
 92.87     586.34
 92.97     612.00
 93.07     629.64
 93.17     718.00
 93.27     641.05
 93.37     654.10
 93.47     699.00
 93.57     756.27
 93.67     728.94
 93.77     741.00
 93.87     781.00
 93.97     781.00
 94.07     821.00
 94.17     806.43
 94.27     812.00
 94.37     841.00
 94.47     835.00
 94.57     789.55
 94.67     894.00
 94.77     877.12
 94.87     958.00
 94.97     826.46
 95.07     932.00
 95.17     950.00
 95.27     884.00
 95.37     891.00
 95.47     853.00
 95.57     821.00
 95.67     767.00
 95.77     785.00
 95.87     714.00
 95.97     708.00
 96.07     702.00
 96.17     735.00
 96.27     735.00
 96.37     716.00
 96.47     699.00
 96.57     752.00
 96.67     725.00
 96.77     807.58
 96.87     831.43
 96.97     894.00
 97.07     961.40
 97.17     990.61
 97.27    1135.00
 97.37    1196.00
 97.47    1264.00
 97.57    1295.32
 97.67    1333.07
 97.77    1509.00
 97.87    1394.00
 97.97    1365.00
 98.07    1353.49
 98.17    1380.00
 98.27    1341.00
 98.37    1199.20
 98.47    1142.00
 98.57    1140.00
 98.67    1098.00
 98.77    1039.79
 98.87     942.00
 98.97     961.95
 99.07     906.00
 99.17     849.39
 99.27     925.57
 99.37     858.00
 99.47     947.95
 99.57     871.73
 99.67     926.08
 99.77     997.00
 99.87    1069.99
 99.97    1195.47
100.07    1210.00
100.17    1331.00
100.27    1433.00
100.37    1521.27
100.47    1619.17
100.57    1653.00
100.67    1823.00
100.77    1846.00
100.87    1889.00
100.97    1925.00
101.07    2008.00
101.17    2040.36
101.27    1945.00
101.37    1880.42
101.47    1854.92
101.57    1777.37
101.67    1764.00
101.77    1655.46
101.87    1497.00
101.97    1563.25
102.07    1471.00
102.17    1385.00
102.27    1347.00
102.37    1294.00
102.47    1239.85
102.57    1224.00
102.67    1150.00
102.77    1065.00
102.87    1183.40
102.97    1089.09
103.07    1094.00
103.17    1061.00
103.27    1008.00
103.37     995.00
103.47     957.00
103.57     960.00
103.67     884.62
103.77     748.00
103.87     836.24
103.97     764.00
104.07     732.03
104.17     643.75
104.27     641.00
104.37     612.00
104.47     650.00
104.57     606.00
104.67     612.92
104.77     581.00
104.87     581.00
104.97     565.00
105.07     551.00
105.17     565.00
105.27     549.42
105.37     561.00
105.47     517.35
105.57     512.00
105.67     477.53
105.77     503.52
105.87     544.55
105.97     501.71
106.07     573.00
106.17     502.00
106.27     560.00
106.37     567.00
106.47     575.80
106.57     539.00
106.67     592.00
106.77     588.00
106.87     592.00
106.97     590.71
107.07     587.00
107.17     662.81
107.27     623.98
107.37     641.66
107.47     625.80
107.57     672.00
107.67     672.00
107.77     677.00
107.87     652.54
107.97     688.00
108.07     641.36
108.17     689.00
108.27     670.00
108.37     697.97
108.47     636.00
108.57     675.00
108.67     696.86
108.77     723.34
108.87     646.00
108.97     669.00
109.07     627.00
109.17     624.00
109.27     636.37
109.37     646.68
109.47     665.00
109.57     689.00
109.67     697.00
109.77     653.00
109.87     673.30
109.97     651.00
110.07     663.48
110.17     639.00
110.27     620.00
110.37     581.86
110.47     582.00
110.57     555.00
110.67     620.00
110.77     594.00
110.87     535.00
110.97     589.00
111.07     585.94
111.17     580.00
111.27     577.00
111.37     538.95
111.47     539.63
111.57     554.53
111.67     549.00
111.77     488.00
111.87     571.00
111.97     571.04
112.07     532.00
112.17     525.50
112.27     531.00
112.37     519.85
112.47     528.00
112.57     546.25
112.67     577.00
112.77     540.57
112.87     597.35
112.97     570.00
113.07     601.73
113.17     550.00
113.27     582.00
113.37     637.37
113.47     598.00
113.57     648.00
113.67     668.49
113.77     658.00
113.87     639.00
113.97     677.29
114.07     693.00
114.17     704.00
114.27     797.13
114.37     814.00
114.47     872.00
114.57     929.00
114.67     937.00
114.77    1081.00
114.87    1242.34
114.97    1380.03
115.07    1463.81
115.17    1587.29
115.27    1763.64
115.37    1984.83
115.47    2275.61
115.57    2638.00
115.67    2902.00
115.77    3250.00
115.87    3496.97
115.97    3826.00
116.07    4049.00
116.17    4468.00
116.27    4996.78
116.37    5230.00
116.47    5646.00
116.57    5907.61
116.67    6493.00
116.77    6515.00
116.87    6807.00
116.97    6750.00
117.07    6927.00
117.17    6771.00
117.27    6673.61
117.37    6573.51
117.47    6491.00
117.57    6105.78
117.67    5865.00
117.77    5746.64
117.87    5346.39
117.97    5097.33
118.07    4532.00
118.17    4150.00
118.27    3883.12
118.37    3575.11
118.47    3298.00
118.57    2941.00
118.67    2522.08
118.77    2259.26
118.87    2159.00
118.97    1863.00
119.07    1633.42
119.17    1605.52
119.27    1443.05
119.37    1230.91
119.47    1129.00
119.57    1039.48
119.67     955.00
119.77     898.00
119.87     886.78
119.97     813.37
120.07     753.67
120.17     740.00
120.27     668.85
120.37     664.39
120.47     669.00
120.57     621.00
120.67     588.00
120.77     591.00
120.87     639.00
120.97     566.00
121.07     600.96
121.17     586.00
121.27     565.00
121.37     613.25
121.47     631.00
121.57     579.00
121.67     575.68
121.77     564.00
121.87     553.46
121.97     584.00
122.07     585.00
122.17     573.82
122.27     593.00
122.37     628.96
122.47     631.11
122.57     592.00
122.67     600.75
122.77     602.00
122.87     623.00
122.97     637.00
123.07     622.00
123.17     606.38
123.27     641.28
123.37     669.79
123.47     649.00
123.57     654.00
123.67     580.75
123.77     657.00
123.87     597.00
123.97     609.87
124.07     591.39
124.17     636.75
124.27     576.17
124.37     601.24
124.47     599.00
124.57     603.28
124.67     602.00
124.77     604.04
124.87     637.00
124.97     584.00
