  9.97     584.00
 10.07     597.00
 10.17     592.21
 10.27     576.00
 10.37     528.50
 10.47     553.39
 10.57     577.74
 10.67     542.88
 10.77     605.00
 10.87     536.01
 10.97     561.00
 11.07     544.02
 11.17     569.00
 11.27     558.86
 11.37     565.00
 11.47     577.98
 11.57     597.71
 11.67     639.00
 11.77     556.00
 11.87     650.00
 11.97     648.00
 12.07     651.15
 12.17     689.33
 12.27     740.38
 12.37     652.00
 12.47     589.00
 12.57     587.00
 12.67     601.00
 12.77     551.45
 12.87     606.42
 12.97     565.00
 13.07     606.00
 13.17     570.00
 13.27     592.00
 13.37     609.00
 13.47     548.00
 13.57     566.80
 13.67     594.00
 13.77     577.00
 13.87     531.00
 13.97     550.39
 14.07     593.00
 14.17     557.20
 14.27     577.33
 14.37     562.00
 14.47     608.88
 14.57     592.00
 14.67     573.00
 14.77     553.00
 14.87     583.54
 14.97     541.90
 15.07     584.00
 15.17     532.77
 15.27     544.00
 15.37     583.00
 15.47     593.00
 15.57     558.46
 15.67     580.76
 15.77     536.00
 15.87     557.00
 15.97     589.00
 16.07     556.55
 16.17     586.00
 16.27     549.56
 16.37     593.71
 16.47     570.00
 16.57     599.70
 16.67     526.00
 16.77     602.56
 16.87     560.00
 16.97     560.00
 17.07     534.30
 17.17     541.00
 17.27     531.00
 17.37     554.45
 17.47     556.00
 17.57     562.00
 17.67     531.21
 17.77     529.32
 17.87     523.15
 17.97     556.00
 18.07     605.00
 18.17     586.16
 18.27     524.00
 18.37     527.00
 18.47     576.00
 18.57     547.83
 18.67     544.41
 18.77     551.45
 18.87     541.96
 18.97     519.00
 19.07     594.02
 19.17     566.00
 19.27     560.00
 19.37     546.00
 19.47     549.00
 19.57     533.00
 19.67     530.00
 19.77     522.00
 19.87     562.00
 19.97     530.51
 20.07     552.19
 20.17     535.00
 20.27     536.04
 20.37     537.00
 20.47     524.00
 20.57     557.00
 20.67     569.00
 20.77     547.59
 20.87     573.00
 20.97     522.00
 21.07     579.00
 21.17     526.00
 21.27     574.00
 21.37     530.66
 21.47     555.00
 21.57     517.20
 21.67     581.84
 21.77     533.00
 21.87     558.00
 21.97     568.00
 22.07     551.00
 22.17     550.00
 22.27     534.28
 22.37     498.00
 22.47     574.00
 22.57     530.27
 22.67     561.00
 22.77     547.00
 22.87     558.00
 22.97     594.00
 23.07     576.00
 23.17     548.55
 23.27     575.00
 23.37     555.00
 23.47     551.00
 23.57     509.33
 23.67     536.07
 23.77     567.23
 23.87     535.95
 23.97     555.00
 24.07     521.00
 24.17     565.00
 24.27     570.00
 24.37     572.00
 24.47     589.24
 24.57     599.00
 24.67     623.00
 24.77     635.57
 24.87     638.26
 24.97     660.33
 25.07     578.00
 25.17     536.39
 25.27     604.00
 25.37     582.00
 25.47     576.00
 25.57     558.93
 25.67     551.00
 25.77     555.66
 25.87     576.00
 25.97     569.00
 26.07     578.00
 26.17     564.00
 26.27     526.00
 26.37     557.00
 26.47     556.00
 26.57     534.00
 26.67     586.29
 26.77     569.00
 26.87     510.08
 26.97     586.32
 27.07     568.00
 27.17     586.92
 27.27     548.02
 27.37     529.00
 27.47     590.00
 27.57     483.00
 27.67     535.00
 27.77     559.00
 27.87     569.02
 27.97     689.00
 28.07     762.00
 28.17     871.00
 28.27     966.00
 28.37     904.00
 28.47     844.69
 28.57     706.00
 28.67     697.00
 28.77     735.00
 28.87     799.00
 28.97     845.00
 29.07     764.00
 29.17     746.11
 29.27     674.00
 29.37     607.59
 29.47     614.15
 29.57     588.00
 29.67     575.00
 29.77     590.00
 29.87     514.55
 29.97     559.00
 30.07     623.00
 30.17     549.00
 30.27     539.38
 30.37     518.85
 30.47     535.00
 30.57     552.00
 30.67     583.05
 30.77     610.00
 30.87     619.18
 30.97     622.00
 31.07     627.57
 31.17     574.00
 31.27     547.00
 31.37     527.00
 31.47     551.42
 31.57     552.00
 31.67     575.00
 31.77     492.00
 31.87     511.26
 31.97     571.00
 32.07     597.00
 32.17     513.00
 32.27     562.70
 32.37     548.00
 32.47     537.00
 32.57     542.82
 32.67     544.00
 32.77     546.00
 32.87     555.68
 32.97     570.00
 33.07     555.67
 33.17     567.00
 33.27     551.00
 33.37     555.00
 33.47     594.94
 33.57     608.23
 33.67     629.30
 33.77     739.37
 33.87     899.47
 33.97     977.00
 34.07    1044.00
 34.17    1035.00
 34.27     869.00
 34.37     766.00
 34.47     676.00
 34.57     634.73
 34.67     567.00
 34.77     579.00
 34.87     571.00
 34.97     529.00
 35.07     553.00
 35.17     565.97
 35.27     539.00
 35.37     504.00
 35.47     549.83
 35.57     540.92
 35.67     515.00
 35.77     477.39
 35.87     514.00
 35.97     467.00
 36.07     479.56
 36.17     538.00
 36.27     497.00
 36.37     534.27
 36.47     515.49
 36.57     536.00
 36.67     508.71
 36.77     525.00
 36.87     527.00
 36.97     483.00
 37.07     487.47
 37.17     492.21
 37.27     484.00
 37.37     535.00
 37.47     510.00
 37.57     522.05
 37.67     520.27
 37.77     507.91
 37.87     501.95
 37.97     524.12
 38.07     489.00
 38.17     514.20
 38.27     468.00
 38.37     539.36
 38.47     512.00
 38.57     481.00
 38.67     476.00
 38.77     547.00
 38.87     506.00
 38.97     498.38
 39.07     490.00
 39.17     506.39
 39.27     511.00
 39.37     539.00
 39.47     529.00
 39.57     491.43
 39.67     539.36
 39.77     515.00
 39.87     478.39
 39.97     485.68
 40.07     481.00
 40.17     544.14
 40.27     540.98
 40.37     483.00
 40.47     496.00
 40.57     515.00
 40.67     480.00
 40.77     542.99
 40.87     522.00
 40.97     461.00
 41.07     471.00
 41.17     445.00
 41.27     507.00
 41.37     503.01
 41.47     528.39
 41.57     542.54
 41.67     553.00
 41.77     523.00
 41.87     542.00
 41.97     488.00
 42.07     508.00
 42.17     542.03
 42.27     543.00
 42.37     583.62
 42.47     579.00
 42.57     547.00
 42.67     572.00
 42.77     623.00
 42.87     560.37
 42.97     552.00
 43.07     504.00
 43.17     529.00
 43.27     514.00
 43.37     525.00
 43.47     485.00
 43.57     516.92
 43.67     538.00
 43.77     482.00
 43.87     512.85
 43.97     534.72
 44.07     506.23
 44.17     464.10
 44.27     488.00
 44.37     463.88
 44.47     509.00
 44.57     497.00
 44.67     516.00
 44.77     485.00
 44.87     486.82
 44.97     476.70
 45.07     509.00
 45.17     498.00
 45.27     539.41
 45.37     509.33
 45.47     462.35
 45.57     516.00
 45.67     516.00
 45.77     515.00
 45.87     476.00
 45.97     485.00
 46.07     476.84
 46.17     475.00
 46.27     470.71
 46.37     529.00
 46.47     542.29
 46.57     490.00
 46.67     467.00
 46.77     509.00
 46.87     487.00
 46.97     541.06
 47.07     539.00
 47.17     528.00
 47.27     510.00
 47.37     545.39
 47.47     545.00
 47.57     540.59
 47.67     571.00
 47.77     583.94
 47.87     626.00
 47.97     624.64
 48.07     584.00
 48.17     571.00
 48.27     572.00
 48.37     562.00
 48.47     519.00
 48.57     492.00
 48.67     548.00
 48.77     551.00
 48.87     533.13
 48.97     520.00
 49.07     509.00
 49.17     523.00
 49.27     567.63
 49.37     599.00
 49.47     646.00
 49.57     721.93
 49.67     817.72
 49.77    1030.30
 49.87    1334.53
 49.97    1775.00
 50.07    2083.15
 50.17    2444.00
 50.27    2547.31
 50.37    2347.98
 50.47    1886.91
 50.57    1517.00
 50.67    1184.00
 50.77     930.47
 50.87     728.22
 50.97     716.04
 51.07     711.00
 51.17     642.00
 51.27     624.00
 51.37     599.00
 51.47     585.00
 51.57     573.89
 51.67     552.99
 51.77     581.00
 51.87     494.00
 51.97     547.00
 52.07     562.17
 52.17     492.64
 52.27     537.00
 52.37     576.00
 52.47     579.39
 52.57     601.00
 52.67     595.23
 52.77     547.99
 52.87     652.21
 52.97     734.07
 53.07     785.00
 53.17     917.00
 53.27     987.00
 53.37    1069.00
 53.47    1138.20
 53.57    1211.40
 53.67    1148.86
 53.77    1083.78
 53.87     877.74
 53.97     774.00
 54.07     681.00
 54.17     626.00
 54.27     605.00
 54.37     620.14
 54.47     572.00
 54.57     586.00
 54.67     565.00
 54.77     524.00
 54.87     548.68
 54.97     519.35
 55.07     546.00
 55.17     556.00
 55.27     548.00
 55.37     574.00
 55.47     547.00
 55.57     630.00
 55.67     573.00
 55.77     615.00
 55.87     588.00
 55.97     645.00
 56.07     691.00
 56.17     784.00
 56.27     931.97
 56.37    1198.95
 56.47    1413.00
 56.57    1768.00
 56.67    2145.00
 56.77    2403.00
 56.87    2610.00
 56.97    2585.00
 57.07    2480.14
 57.17    2072.99
 57.27    1704.00
 57.37    1460.19
 57.47    1143.00
 57.57     914.00
 57.67     809.00
 57.77     706.51
 57.87     721.74
 57.97     677.31
 58.07     700.00
 58.17     715.18
 58.27     755.01
 58.37     851.77
 58.47     863.00
 58.57     943.00
 58.67    1058.00
 58.77    1160.00
 58.87    1188.46
 58.97    1308.00
 59.07    1367.00
 59.17    1304.67
 59.27    1363.00
 59.37    1166.79
 59.47    1149.42
 59.57    1152.00
 59.67    1177.00
 59.77    1199.00
 59.87    1221.00
 59.97    1267.29
 60.07    1364.00
 60.17    1518.30
 60.27    1516.00
 60.37    1530.00
 60.47    1382.00
 60.57    1296.00
 60.67    1104.00
 60.77     957.00
 60.87     837.00
 60.97     793.53
 61.07     686.00
 61.17     649.00
 61.27     670.00
 61.37     682.00
 61.47     696.96
 61.57     761.00
 61.67     837.00
 61.77     912.03
 61.87    1101.80
 61.97    1180.00
 62.07    1345.00
 62.17    1380.07
 62.27    1418.00
 62.37    1256.00
 62.47    1168.52
 62.57    1020.00
 62.67     954.00
 62.77     783.00
 62.87     718.00
 62.97     672.65
 63.07     631.23
 63.17     570.83
 63.27     568.00
 63.37     567.00
 63.47     569.00
 63.57     581.00
 63.67     620.00
 63.77     626.00
 63.87     672.00
 63.97     642.00
 64.07     711.00
 64.17     767.00
 64.27     765.32
 64.37     914.62
 64.47     930.79
 64.57     962.00
 64.67    1029.00
 64.77    1055.00
 64.87     953.00
 64.97     968.02
 65.07     879.00
 65.17     811.00
 65.27     717.00
 65.37     720.00
 65.47     657.00
 65.57     652.00
 65.67     617.00
 65.77     580.00
 65.87     602.28
 65.97     608.38
 66.07     579.00
 66.17     586.00
 66.27     544.00
 66.37     530.00
 66.47     543.88
 66.57     593.07
 66.67     552.86
 66.77     619.02
 66.87     615.68
 66.97     621.00
 67.07     641.26
 67.17     686.00
 67.27     774.49
 67.37     933.00
 67.47    1058.00
 67.57    1252.60
 67.67    1551.99
 67.77    1801.00
 67.87    1932.51
 67.97    2261.00
 68.07    2387.00
 68.17    2431.00
 68.27    2355.94
 68.37    2065.00
 68.47    1921.00
 68.57    1586.00
 68.67    1356.15
 68.77    1162.23
 68.87     929.00
 68.97     820.85
 69.07     731.00
 69.17     669.00
 69.27     650.00
 69.37     615.00
 69.47     597.32
 69.57     604.00
 69.67     604.00
 69.77     537.60
 69.87     604.00
 69.97     609.27
 70.07     549.00
 70.17     530.56
 70.27     595.00
 70.37     572.00
 70.47     606.00
 70.57     577.00
 70.67     573.00
 70.77     541.00
 70.87     582.00
 70.97     628.00
 71.07     681.00
 71.17     780.00
 71.27     813.00
 71.37     921.00
 71.47    1075.52
 71.57    1222.00
 71.67    1306.00
 71.77    1518.00
 71.87    1745.00
 71.97    1865.00
 72.07    1853.59
 72.17    1863.00
 72.27    1701.75
 72.37    1683.19
 72.47    1417.00
 72.57    1286.58
 72.67    1190.00
 72.77    1068.02
 72.87     864.00
 72.97     820.00
 73.07     725.00
 73.17     725.00
 73.27     674.46
 73.37     648.52
 73.47     646.09
 73.57     578.42
 73.67     582.07
 73.77     583.00
 73.87     602.81
 73.97     580.00
 74.07     614.11
 74.17     545.93
 74.27     583.00
 74.37     548.54
 74.47     613.00
 74.57     539.02
 74.67     622.00
 74.77     536.20
 74.87     620.00
 74.97     579.26
 75.07     590.00
 75.17     515.23
 75.27     580.00
 75.37     562.00
 75.47     591.00
 75.57     580.00
 75.67     605.00
 75.77     579.00
 75.87     588.00
 75.97     607.00
 76.07     617.00
 76.17     673.69
 76.27     674.00
 76.37     698.00
 76.47     652.00
 76.57     634.00
 76.67     674.00
 76.77     668.00
 76.87     632.00
 76.97     678.15
 77.07     668.45
 77.17     561.00
 77.27     611.00
 77.37     569.38
 77.47     527.00
 77.57     537.00
 77.67     504.00
 77.77     537.00
 77.87     521.70
 77.97     483.00
 78.07     493.00
 78.17     493.93
 78.27     506.19
 78.37     501.00
 78.47     513.70
 78.57     536.00
 78.67     533.02
 78.77     553.85
 78.87     524.00
 78.97     549.00
 79.07     486.00
 79.17     550.00
 79.27     531.75
 79.37     508.00
 79.47     517.21
 79.57     537.00
 79.67     576.16
 79.77     518.00
 79.87     499.07
 79.97     578.07
 80.07     549.00
 80.17     544.00
 80.27     521.17
 80.37     581.86
 80.47     624.00
 80.57     618.00
 80.67     637.33
 80.77     681.05
 80.87     621.00
 80.97     664.00
 81.07     674.00
 81.17     724.00
 81.27     740.00
 81.37     728.00
 81.47     745.00
 81.57     781.80
 81.67     706.00
 81.77     733.00
 81.87     724.00
 81.97     692.00
 82.07     673.00
 82.17     673.00
 82.27     669.37
 82.37     649.00
 82.47     600.00
 82.57     559.00
 82.67     552.00
 82.77     558.00
 82.87     549.00
 82.97     564.00
 83.07     543.59
 83.17     549.10
 83.27     577.60
 83.37     525.65
 83.47     534.00
 83.57     510.00
 83.67     563.00
 83.77     507.00
 83.87     582.00
 83.97     554.00
 84.07     596.77
 84.17     591.00
 84.27     565.00
 84.37     523.00
 84.47     496.00
 84.57     571.00
 84.67     534.77
 84.77     561.45
 84.87     503.00
 84.97     540.00
 85.07     524.00
 85.17     519.00
 85.27     559.67
 85.37     536.00
 85.47     484.83
 85.57     522.00
 85.67     563.26
 85.77     512.00
 85.87     480.49
 85.97     536.59
 86.07     541.00
 86.17     497.80
 86.27     540.00
 86.37     545.60
 86.47     544.00
 86.57     586.38
 86.67     551.00
 86.77     570.76
 86.87     609.00
 86.97     633.00
 87.07     640.00
 87.17     608.35
 87.27     678.00
 87.37     591.22
 87.47     668.00
 87.57     662.00
 87.67     607.00
 87.77     640.00
 87.87     592.05
 87.97     564.33
 88.07     578.00
 88.17     606.00
 88.27     561.00
 88.37     624.00
 88.47     571.00
 88.57     587.00
 88.67     596.00
 88.77     586.00
 88.87     582.00
 88.97     575.00
 89.07     570.00
 89.17     599.00
 89.27     536.00
 89.37     603.35
 89.47     592.63
 89.57     628.00
 89.67     564.06
 89.77     600.00
 89.87     540.13
 89.97     562.47
 90.07     560.00
 90.17     552.87
 90.27     585.77
 90.37     522.00
 90.47     530.00
 90.57     550.68
 90.67     498.00
 90.77     521.56
 90.87     513.00
 90.97     513.81
 91.07     505.00
 91.17     550.00
 91.27     499.00
 91.37     533.71
 91.47     487.15
 91.57     533.10
 91.67     505.62
 91.77     556.00
 91.87     537.98
 91.97     581.00
 92.07     570.00
 92.17     565.00
 92.27     535.32
 92.37     577.80
 92.47     643.00
 92.57     607.80
 92.67     658.97
 92.77     639.00
 92.87     707.00
 92.97     709.00
 93.07     710.47
 93.17     735.24
 93.27     714.00
 93.37     734.09
 93.47     810.28
 93.57     846.00
 93.67     801.00
 93.77     870.00
 93.87     834.00
 93.97     814.00
 94.07     833.52
 94.17     792.00
 94.27     893.00
 94.37     869.00
 94.47     887.00
 94.57     928.00
 94.67     941.00
 94.77     897.00
 94.87     859.00
 94.97     834.79
 95.07     902.89
 95.17     820.24
 95.27     826.00
 95.37     864.00
 95.47     795.77
 95.57     806.00
 95.67     763.00
 95.77     687.00
 95.87     671.44
 95.97     703.00
 96.07     700.00
 96.17     793.00
 96.27     664.00
 96.37     799.41
 96.47     812.00
 96.57     900.00
 96.67     919.00
 96.77     982.00
 96.87    1028.00
 96.97    1118.00
 97.07    1244.02
 97.17    1321.34
 97.27    1334.00
 97.37    1387.50
 97.47    1434.00
 97.57    1434.00
 97.67    1429.56
 97.77    1368.00
 97.87    1431.61
 97.97    1298.00
 98.07    1219.00
 98.17    1200.00
 98.27    1089.00
 98.37    1115.17
 98.47     983.34
 98.57     946.79
 98.67     958.43
 98.77     870.00
 98.87     829.00
 98.97     868.00
 99.07     813.00
 99.17     824.00
 99.27     933.73
 99.37     976.00
 99.47    1042.97
 99.57    1119.54
 99.67    1133.00
 99.77    1238.00
 99.87    1302.00
 99.97    1421.33
100.07    1465.00
100.17    1713.00
100.27    1718.82
100.37    1788.00
100.47    1898.00
100.57    2028.21
100.67    2064.06
100.77    2107.00
100.87    2102.00
100.97    1963.00
101.07    1932.00
101.17    1815.53
101.27    1838.42
101.37    1637.00
101.47    1604.00
101.57    1593.35
101.67    1481.82
101.77    1392.03
101.87    1334.00
101.97    1331.18
102.07    1160.00
102.17    1115.00
102.27    1172.00
102.37    1159.67
102.47    1148.00
102.57    1060.83
102.67    1132.00
102.77    1031.00
102.87    1009.18
102.97    1020.00
103.07    1006.54
103.17     866.50
103.27     894.61
103.37     792.00
103.47     764.00
103.57     742.39
103.67     723.00
103.77     731.00
103.87     706.59
103.97     590.00
104.07     619.00
104.17     645.00
104.27     570.85
104.37     571.00
104.47     597.00
104.57     516.00
104.67     579.00
104.77     543.00
104.87     532.34
104.97     500.00
105.07     569.22
105.17     530.56
105.27     536.00
105.37     488.53
105.47     545.00
105.57     577.66
105.67     549.00
105.77     515.54
105.87     565.00
105.97     556.88
106.07     612.00
106.17     556.00
106.27     557.00
106.37     609.42
106.47     577.00
106.57     606.82
106.67     646.30
106.77     637.00
106.87     672.74
106.97     649.00
107.07     694.22
107.17     637.71
107.27     659.73
107.37     664.00
107.47     638.00
107.57     637.00
107.67     695.00
107.77     700.00
107.87     683.00
107.97     677.00
108.07     694.58
108.17     658.03
108.27     738.00
108.37     640.00
108.47     697.00
108.57     701.93
108.67     710.00
108.77     659.00
108.87     657.00
108.97     739.00
109.07     634.00
109.17     654.23
109.27     635.23
109.37     621.39
109.47     661.79
109.57     649.26
109.67     620.82
109.77     605.00
109.87     659.00
109.97     591.00
110.07     615.45
110.17     586.00
110.27     595.00
110.37     568.65
110.47     581.00
110.57     562.00
110.67     553.00
110.77     568.93
110.87     592.00
110.97     533.00
111.07     508.00
111.17     534.00
111.27     536.42
111.37     526.96
111.47     556.00
111.57     582.76
111.67     503.48
111.77     587.00
111.87     529.06
111.97     589.00
112.07     594.00
112.17     543.00
112.27     541.00
112.37     557.83
112.47     612.78
112.57     595.00
112.67     625.00
112.77     589.00
112.87     646.80
112.97     652.82
113.07     674.52
113.17     635.00
113.27     634.00
113.37     701.27
113.47     740.81
113.57     696.00
113.67     752.19
113.77     813.78
113.87     786.00
113.97     804.00
114.07     813.00
114.17     879.00
114.27    1020.97
114.37    1074.51
114.47    1127.00
114.57    1263.00
114.67    1433.32
114.77    1603.00
114.87    1767.00
114.97    1963.00
115.07    2289.00
115.17    2404.00
115.27    2760.00
115.37    3002.00
115.47    3332.00
115.57    3483.00
115.67    4040.78
115.77    4246.00
115.87    4732.40
115.97    4998.00
116.07    5345.00
116.17    5811.67
116.27    6045.00
116.37    6412.00
116.47    6577.67
116.57    6541.88
116.67    6806.00
116.77    6879.00
116.87    6731.00
116.97    6590.00
117.07    6335.00
117.17    6299.00
117.27    5680.00
117.37    5518.60
117.47    5136.00
117.57    4636.00
117.67    4367.00
117.77    4066.26
117.87    3847.00
117.97    3388.43
118.07    3121.54
118.17    2761.70
118.27    2503.00
118.37    2240.00
118.47    1973.00
118.57    1782.00
118.67    1586.00
118.77    1389.00
118.87    1358.02
118.97    1248.00
119.07    1050.00
119.17     942.61
119.27     954.50
119.37     819.00
119.47     797.00
119.57     779.13
119.67     745.96
119.77     685.86
119.87     688.88
119.97     641.00
120.07     580.00
120.17     596.40
120.27     579.00
120.37     638.43
120.47     579.00
120.57     605.00
120.67     588.00
120.77     599.06
120.87     553.72
120.97     586.00
121.07     535.00
121.17     538.84
121.27     588.70
121.37     539.00
121.47     576.00
121.57     577.00
121.67     578.00
121.77     578.00
121.87     630.00
121.97     627.00
122.07     569.71
122.17     610.61
122.27     660.14
122.37     638.07
122.47     618.00
122.57     644.33
122.67     602.00
122.77     633.00
122.87     630.00
122.97     621.44
123.07     681.03
123.17     642.00
123.27     613.00
123.37     676.96
123.47     667.81
123.57     644.00
123.67     659.00
123.77     666.77
123.87     624.00
123.97     662.68
124.07     614.00
124.17     629.00
124.27     620.00
124.37     619.00
124.47     598.00
124.57     626.00
124.67     621.03
124.77     592.00
124.87     595.00
124.97     622.00
