  9.97     698.00
 10.07     571.75
 10.17     706.00
 10.27     637.20
 10.37     621.70
 10.47     645.00
 10.57     644.00
 10.67     657.00
 10.77     673.00
 10.87     679.00
 10.97     659.00
 11.07     610.00
 11.17     623.84
 11.27     619.00
 11.37     592.01
 11.47     650.00
 11.57     622.33
 11.67     671.33
 11.77     630.00
 11.87     702.00
 11.97     684.85
 12.07     725.00
 12.17     766.00
 12.27     744.00
 12.37     752.00
 12.47     776.00
 12.57     659.00
 12.67     616.00
 12.77     638.15
 12.87     650.11
 12.97     627.36
 13.07     582.80
 13.17     626.86
 13.27     584.58
 13.37     646.00
 13.47     662.79
 13.57     596.00
 13.67     638.00
 13.77     676.19
 13.87     668.57
 13.97     555.00
 14.07     596.00
 14.17     645.00
 14.27     617.00
 14.37     589.00
 14.47     641.19
 14.57     650.26
 14.67     652.21
 14.77     600.54
 14.87     620.00
 14.97     598.00
 15.07     642.84
 15.17     615.44
 15.27     569.00
 15.37     606.00
 15.47     579.05
 15.57     593.00
 15.67     617.00
 15.77     582.00
 15.87     616.92
 15.97     640.23
 16.07     623.29
 16.17     629.74
 16.27     669.00
 16.37     642.78
 16.47     558.00
 16.57     567.00
 16.67     568.00
 16.77     612.48
 16.87     571.00
 16.97     626.00
 17.07     608.00
 17.17     596.05
 17.27     615.00
 17.37     602.00
 17.47     587.00
 17.57     647.00
 17.67     571.62
 17.77     569.00
 17.87     605.42
 17.97     586.37
 18.07     668.47
 18.17     589.00
 18.27     558.00
 18.37     639.61
 18.47     597.00
 18.57     586.16
 18.67     595.00
 18.77     598.00
 18.87     642.96
 18.97     577.95
 19.07     581.48
 19.17     586.00
 19.27     600.75
 19.37     596.73
 19.47     584.00
 19.57     590.00
 19.67     638.18
 19.77     603.00
 19.87     646.80
 19.97     569.00
 20.07     636.90
 20.17     604.00
 20.27     630.62
 20.37     603.00
 20.47     632.43
 20.57     594.00
 20.67     629.00
 20.77     592.00
 20.87     608.00
 20.97     603.00
 21.07     647.78
 21.17     629.25
 21.27     569.38
 21.37     660.81
 21.47     595.32
 21.57     610.00
 21.67     639.36
 21.77     605.00
 21.87     592.75
 21.97     633.00
 22.07     594.44
 22.17     582.00
 22.27     602.00
 22.37     627.00
 22.47     622.00
 22.57     636.00
 22.67     595.00
 22.77     602.83
 22.87     652.71
 22.97     608.00
 23.07     593.00
 23.17     667.11
 23.27     652.55
 23.37     588.00
 23.47     662.59
 23.57     603.00
 23.67     601.86
 23.77     636.00
 23.87     630.00
 23.97     590.00
 24.07     672.07
 24.17     624.00
 24.27     688.00
 24.37     657.11
 24.47     679.56
 24.57     624.84
 24.67     670.41
 24.77     703.38
 24.87     718.20
 24.97     683.00
 25.07     656.00
 25.17     719.47
 25.27     634.30
 25.37     648.00
 25.47     584.69
 25.57     608.00
 25.67     623.48
 25.77     646.00
 25.87     681.00
 25.97     616.48
 26.07     655.00
 26.17     669.00
 26.27     654.00
 26.37     676.00
 26.47     596.64
 26.57     650.00
 26.67     662.00
 26.77     657.00
 26.87     662.00
 26.97     688.00
 27.07     605.67
 27.17     663.00
 27.27     600.39
 27.37     568.04
 27.47     561.55
 27.57     688.00
 27.67     766.00
 27.77     617.92
 27.87     665.86
 27.97     638.96
 28.07     813.00
 28.17     899.00
 28.27     961.00
 28.37    1023.00
 28.47     909.96
 28.57     836.12
 28.67     887.00
 28.77     888.00
 28.87     819.55
 28.97     953.00
 29.07    1007.00
 29.17     951.00
 29.27     746.63
 29.37     851.00
 29.47     713.00
 29.57     642.40
 29.67     728.00
 29.77     727.00
 29.87     573.86
 29.97     714.00
 30.07     657.00
 30.17     610.25
 30.27     718.00
 30.37     657.00
 30.47     682.00
 30.57     667.00
 30.67     682.00
 30.77     667.00
 30.87     668.00
 30.97     673.00
 31.07     691.56
 31.17     728.00
 31.27     580.16
 31.37     641.00
 31.47     667.00
 31.57     587.43
 31.67     630.60
 31.77     626.36
 31.87     597.59
 31.97     580.51
 32.07     606.00
 32.17     616.31
 32.27     620.00
 32.37     582.00
 32.47     568.00
 32.57     591.38
 32.67     557.57
 32.77     563.00
 32.87     536.40
 32.97     575.00
 33.07     592.00
 33.17     633.78
 33.27     564.00
 33.37     593.00
 33.47     606.00
 33.57     651.64
 33.67     643.00
 33.77     762.78
 33.87     805.89
 33.97     903.66
 34.07     923.57
 34.17    1086.41
 34.27    1044.00
 34.37     952.00
 34.47     855.00
 34.57     719.00
 34.67     686.00
 34.77     696.72
 34.87     662.00
 34.97     572.00
 35.07     584.00
 35.17     576.00
 35.27     572.00
 35.37     592.00
 35.47     531.00
 35.57     527.26
 35.67     524.95
 35.77     521.00
 35.87     563.00
 35.97     520.00
 36.07     574.00
 36.17     559.88
 36.27     513.00
 36.37     528.00
 36.47     567.00
 36.57     546.00
 36.67     536.14
 36.77     542.00
 36.87     524.53
 36.97     572.00
 37.07     514.00
 37.17     584.72
 37.27     509.04
 37.37     534.46
 37.47     543.00
 37.57     540.00
 37.67     555.00
 37.77     536.00
 37.87     541.00
 37.97     558.00
 38.07     573.00
 38.17     584.40
 38.27     512.12
 38.37     593.04
 38.47     555.29
 38.57     494.00
 38.67     591.69
 38.77     580.72
 38.87     586.00
 38.97     527.00
 39.07     517.00
 39.17     558.00
 39.27     498.90
 39.37     546.54
 39.47     519.00
 39.57     542.16
 39.67     566.00
 39.77     549.00
 39.87     471.00
 39.97     510.00
 40.07     538.00
 40.17     544.00
 40.27     502.22
 40.37     554.00
 40.47     545.00
 40.57     500.00
 40.67     489.00
 40.77     530.00
 40.87     527.00
 40.97     504.64
 41.07     517.00
 41.17     529.00
 41.27     516.01
 41.37     531.13
 41.47     561.28
 41.57     503.00
 41.67     560.36
 41.77     538.00
 41.87     507.00
 41.97     515.00
 42.07     521.66
 42.17     538.00
 42.27     533.00
 42.37     538.00
 42.47     538.98
 42.57     628.77
 42.67     599.00
 42.77     663.68
 42.87     595.00
 42.97     645.57
 43.07     583.00
 43.17     574.00
 43.27     562.00
 43.37     610.00
 43.47     528.88
 43.57     510.00
 43.67     553.00
 43.77     532.00
 43.87     523.65
 43.97     541.00
 44.07     509.00
 44.17     518.95
 44.27     528.00
 44.37     533.00
 44.47     527.00
 44.57     530.76
 44.67     547.00
 44.77     535.81
 44.87     554.00
 44.97     533.00
 45.07     482.24
 45.17     528.00
 45.27     545.00
 45.37     516.51
 45.47     564.00
 45.57     542.19
 45.67     498.75
 45.77     539.00
 45.87     536.00
 45.97     522.75
 46.07     546.76
 46.17     574.50
 46.27     499.17
 46.37     529.00
 46.47     562.81
 46.57     507.00
 46.67     511.00
 46.77     479.66
 46.87     553.00
 46.97     514.00
 47.07     501.25
 47.17     544.00
 47.27     550.00
 47.37     540.52
 47.47     512.00
 47.57     557.00
 47.67     591.00
 47.77     550.00
 47.87     633.51
 47.97     628.00
 48.07     612.00
 48.17     649.00
 48.27     617.00
 48.37     574.00
 48.47     570.00
 48.57     591.00
 48.67     559.00
 48.77     572.60
 48.87     546.00
 48.97     566.00
 49.07     529.25
 49.17     577.00
 49.27     567.00
 49.37     615.00
 49.47     601.12
 49.57     646.00
 49.67     750.98
 49.77     860.32
 49.87     943.10
 49.97    1201.42
 50.07    1529.00
 50.17    1900.00
 50.27    2157.12
 50.37    2346.67
 50.47    2297.00
 50.57    2005.66
 50.67    1725.00
 50.77    1364.00
 50.87    1157.71
 50.97    1025.02
 51.07     829.00
 51.17     782.62
 51.27     699.00
 51.37     658.00
 51.47     712.85
 51.57     643.00
 51.67     581.54
 51.77     672.00
 51.87     598.00
 51.97     570.00
 52.07     619.00
 52.17     604.00
 52.27     550.99
 52.37     626.00
 52.47     593.00
 52.57     581.96
 52.67     563.74
 52.77     615.00
 52.87     629.13
 52.97     641.89
 53.07     647.00
 53.17     723.00
 53.27     779.73
 53.37     894.00
 53.47    1004.00
 53.57    1052.00
 53.67    1193.48
 53.77    1245.00
 53.87    1139.44
 53.97    1139.36
 54.07     962.00
 54.17     886.00
 54.27     777.00
 54.37     702.00
 54.47     670.00
 54.57     653.00
 54.67     608.32
 54.77     645.89
 54.87     636.00
 54.97     547.79
 55.07     649.00
 55.17     596.00
 55.27     641.00
 55.37     545.04
 55.47     561.75
 55.57     628.00
 55.67     583.02
 55.77     629.00
 55.87     661.00
 55.97     623.00
 56.07     722.22
 56.17     664.68
 56.27     739.04
 56.37     857.00
 56.47     990.00
 56.57    1184.00
 56.67    1559.79
 56.77    1773.45
 56.87    2091.00
 56.97    2359.00
 57.07    2615.00
 57.17    2565.00
 57.27    2405.00
 57.37    2129.21
 57.47    1797.00
 57.57    1481.00
 57.67    1242.00
 57.77    1014.14
 57.87     871.00
 57.97     854.00
 58.07     779.00
 58.17     787.00
 58.27     688.15
 58.37     784.85
 58.47     711.49
 58.57     760.00
 58.67     860.56
 58.77     946.20
 58.87    1009.00
 58.97    1168.00
 59.07    1206.00
 59.17    1211.00
 59.27    1322.00
 59.37    1309.00
 59.47    1253.00
 59.57    1225.00
 59.67    1190.00
 59.77    1115.58
 59.87    1150.00
 59.97    1133.83
 60.07    1212.03
 60.17    1429.00
 60.27    1433.00
 60.37    1585.00
 60.47    1550.00
 60.57    1584.00
 60.67    1525.64
 60.77    1388.00
 60.87    1234.00
 60.97    1047.00
 61.07     898.65
 61.17     824.00
 61.27     727.96
 61.37     754.02
 61.47     696.93
 61.57     727.00
 61.67     766.00
 61.77     750.37
 61.87     947.56
 61.97    1050.91
 62.07    1122.89
 62.17    1193.00
 62.27    1334.51
 62.37    1307.00
 62.47    1378.00
 62.57    1341.00
 62.67    1301.66
 62.77    1145.00
 62.87     998.58
 62.97     937.00
 63.07     730.00
 63.17     720.00
 63.27     636.00
 63.37     635.00
 63.47     663.00
 63.57     585.92
 63.67     626.00
 63.77     661.00
 63.87     655.05
 63.97     596.01
 64.07     601.10
 64.17     683.00
 64.27     697.03
 64.37     779.00
 64.47     851.00
 64.57     916.77
 64.67    1022.62
 64.77    1057.00
 64.87    1050.00
 64.97    1045.00
 65.07    1012.38
 65.17    1030.37
 65.27     977.11
 65.37     925.00
 65.47     867.77
 65.57     740.19
 65.67     714.00
 65.77     745.71
 65.87     684.00
 65.97     614.00
 66.07     632.84
 66.17     616.00
 66.27     622.41
 66.37     560.87
 66.47     603.00
 66.57     607.00
 66.67     631.00
 66.77     625.00
 66.87     598.00
 66.97     633.00
 67.07     603.00
 67.17     682.00
 67.27     690.00
 67.37     759.00
 67.47     765.00
 67.57     912.63
 67.67    1036.21
 67.77    1197.00
 67.87    1391.00
 67.97    1579.00
 68.07    1835.00
 68.17    2048.46
 68.27    2265.85
 68.37    2338.45
 68.47    2392.00
 68.57    2348.00
 68.67    2106.24
 68.77    1797.00
 68.87    1614.00
 68.97    1361.73
 69.07    1121.00
 69.17     977.15
 69.27     917.00
 69.37     868.96
 69.47     744.00
 69.57     702.00
 69.67     614.07
 69.77     653.00
 69.87     623.00
 69.97     636.00
 70.07     644.21
 70.17     637.64
 70.27     658.00
 70.37     611.00
 70.47     639.00
 70.57     669.00
 70.67     619.00
 70.77     643.00
 70.87     608.00
 70.97     627.00
 71.07     598.00
 71.17     667.00
 71.27     646.00
 71.37     724.02
 71.47     863.00
 71.57     896.00
 71.67    1008.00
 71.77    1191.00
 71.87    1311.00
 71.97    1518.73
 72.07    1657.00
 72.17    1707.00
 72.27    1829.94
 72.37    1861.00
 72.47    1834.00
 72.57    1791.00
 72.67    1648.00
 72.77    1471.58
 72.87    1358.55
 72.97    1114.00
 73.07    1053.00
 73.17     909.00
 73.27     766.52
 73.37     686.98
 73.47     729.62
 73.57     690.00
 73.67     577.77
 73.77     678.00
 73.87     618.00
 73.97     667.00
 74.07     540.81
 74.17     643.00
 74.27     604.52
 74.37     625.00
 74.47     530.10
 74.57     634.35
 74.67     672.00
 74.77     626.00
 74.87     631.00
 74.97     568.97
 75.07     638.71
 75.17     611.90
 75.27     644.00
 75.37     640.00
 75.47     638.00
 75.57     634.00
 75.67     604.00
 75.77     598.00
 75.87     636.00
 75.97     620.00
 76.07     630.00
 76.17     661.00
 76.27     608.00
 76.37     697.00
 76.47     673.00
 76.57     681.05
 76.67     710.00
 76.77     737.00
 76.87     730.00
 76.97     748.00
 77.07     713.86
 77.17     718.02
 77.27     680.00
 77.37     695.96
 77.47     642.00
 77.57     610.00
 77.67     575.61
 77.77     554.03
 77.87     581.00
 77.97     605.77
 78.07     554.42
 78.17     562.00
 78.27     601.58
 78.37     549.00
 78.47     557.31
 78.57     566.00
 78.67     510.00
 78.77     546.00
 78.87     554.00
 78.97     544.41
 79.07     534.00
 79.17     520.00
 79.27     576.00
 79.37     525.00
 79.47     547.48
 79.57     504.78
 79.67     528.00
 79.77     567.16
 79.87     514.00
 79.97     522.91
 80.07     559.00
 80.17     555.00
 80.27     567.00
 80.37     522.11
 80.47     634.27
 80.57     588.00
 80.67     585.00
 80.77     613.00
 80.87     645.00
 80.97     671.00
 81.07     632.00
 81.17     699.00
 81.27     674.00
 81.37     741.00
 81.47     768.22
 81.57     805.20
 81.67     721.77
 81.77     761.00
 81.87     721.00
 81.97     770.00
 82.07     786.00
 82.17     730.00
 82.27     719.00
 82.37     754.04
 82.47     698.93
 82.57     651.00
 82.67     659.00
 82.77     679.98
 82.87     611.00
 82.97     597.00
 83.07     561.78
 83.17     575.00
 83.27     643.17
 83.37     600.37
 83.47     513.00
 83.57     600.00
 83.67     547.00
 83.77     554.00
 83.87     550.00
 83.97     575.00
 84.07     593.47
 84.17     583.00
 84.27     569.00
 84.37     619.00
 84.47     553.00
 84.57     602.00
 84.67     585.00
 84.77     584.00
 84.87     558.00
 84.97     557.00
 85.07     583.84
 85.17     585.00
 85.27     603.32
 85.37     571.00
 85.47     537.00
 85.57     510.00
 85.67     538.00
 85.77     533.00
 85.87     510.00
 85.97     589.72
 86.07     547.00
 86.17     490.87
 86.27     534.00
 86.37     538.00
 86.47     611.00
 86.57     597.00
 86.67     588.00
 86.77     556.00
 86.87     575.00
 86.97     546.00
 87.07     578.00
 87.17     580.00
 87.27     608.00
 87.37     597.00
 87.47     616.00
 87.57     620.00
 87.67     656.00
 87.77     660.00
 87.87     690.00
 87.97     633.00
 88.07     665.15
 88.17     661.00
 88.27     651.86
 88.37     697.00
 88.47     644.00
 88.57     624.38
 88.67     616.24
 88.77     575.00
 88.87     594.84
 88.97     610.08
 89.07     598.00
 89.17     568.93
 89.27     605.73
 89.37     582.00
 89.47     592.30
 89.57     595.00
 89.67     573.72
 89.77     574.00
 89.87     626.12
 89.97     627.00
 90.07     652.00
 90.17     576.00
 90.27     552.00
 90.37     546.00
 90.47     563.00
 90.57     532.00
 90.67     585.00
 90.77     545.00
 90.87     539.29
 90.97     551.00
 91.07     499.00
 91.17     545.62
 91.27     489.00
 91.37     550.00
 91.47     529.00
 91.57     515.00
 91.67     508.00
 91.77     517.00
 91.87     525.00
 91.97     572.00
 92.07     552.00
 92.17     568.59
 92.27     534.40
 92.37     534.00
 92.47     563.00
 92.57     557.00
 92.67     608.00
 92.77     615.00
 92.87     619.77
 92.97     680.00
 93.07     659.00
 93.17     643.00
 93.27     720.18
 93.37     742.32
 93.47     756.00
 93.57     741.23
 93.67     796.00
 93.77     749.08
 93.87     774.00
 93.97     855.00
 94.07     809.97
 94.17     852.02
 94.27     868.00
 94.37     802.92
 94.47     879.00
 94.57     880.00
 94.67     841.46
 94.77     912.00
 94.87     925.49
 94.97     917.00
 95.07     921.00
 95.17     916.14
 95.27     936.00
 95.37     904.00
 95.47     842.80
 95.57     902.00
 95.67     863.00
 95.77     844.00
 95.87     817.00
 95.97     747.15
 96.07     747.00
 96.17     789.00
 96.27     732.00
 96.37     791.51
 96.47     763.00
 96.57     700.97
 96.67     808.00
 96.77     768.00
 96.87     822.00
 96.97     909.35
 97.07     950.00
 97.17     994.00
 97.27    1090.00
 97.37    1083.80
 97.47    1243.47
 97.57    1199.77
 97.67    1356.24
 97.77    1353.00
 97.87    1504.47
 97.97    1490.00
 98.07    1493.00
 98.17    1500.00
 98.27    1453.50
 98.37    1321.03
 98.47    1290.52
 98.57    1286.00
 98.67    1182.74
 98.77    1137.00
 98.87    1175.00
 98.97     975.37
 99.07     970.00
 99.17     929.00
 99.27     977.00
 99.37     927.00
 99.47     873.00
 99.57     892.00
 99.67     919.00
 99.77     974.25
 99.87    1042.00
 99.97    1132.55
100.07    1230.94
100.17    1179.00
100.27    1297.09
100.37    1370.49
100.47    1465.08
100.57    1624.00
100.67    1737.23
100.77    1811.00
100.87    1847.00
100.97    1959.57
101.07    1980.86
101.17    1983.11
101.27    1988.00
101.37    1935.00
101.47    1943.00
101.57    2006.00
101.67    1916.90
101.77    1716.21
101.87    1724.00
101.97    1643.00
102.07    1578.00
102.17    1590.65
102.27    1455.00
102.37    1428.00
102.47    1373.00
102.57    1302.34
102.67    1221.00
102.77    1216.00
102.87    1201.12
102.97    1159.38
103.07    1129.53
103.17    1094.00
103.27    1130.77
103.37    1047.15
103.47     954.00
103.57     981.69
103.67     932.00
103.77     944.00
103.87     908.00
103.97     842.00
104.07     816.00
104.17     767.56
104.27     716.09
104.37     715.52
104.47     667.00
104.57     667.00
104.67     642.53
104.77     659.00
104.87     612.00
104.97     603.00
105.07     594.00
105.17     612.36
105.27     600.00
105.37     594.00
105.47     531.00
105.57     530.51
105.67     566.00
105.77     555.61
105.87     515.07
105.97     584.77
106.07     525.00
106.17     549.00
106.27     600.00
106.37     608.00
106.47     558.00
106.57     570.50
106.67     573.00
106.77     621.00
106.87     616.00
106.97     631.00
107.07     598.23
107.17     613.31
107.27     606.00
107.37     725.98
107.47     718.55
107.57     695.00
107.67     668.34
107.77     720.19
107.87     683.20
107.97     705.00
108.07     774.54
108.17     737.00
108.27     709.00
108.37     734.39
108.47     741.78
108.57     690.00
108.67     694.08
108.77     699.00
108.87     677.63
108.97     688.00
109.07     687.70
109.17     705.00
109.27     702.00
109.37     674.12
109.47     716.00
109.57     701.00
109.67     723.00
109.77     699.21
109.87     728.90
109.97     703.00
110.07     698.00
110.17     698.00
110.27     608.66
110.37     677.00
110.47     641.00
110.57     673.00
110.67     560.00
110.77     603.24
110.87     583.00
110.97     532.34
111.07     540.00
111.17     525.00
111.27     583.00
111.37     576.00
111.47     598.00
111.57     590.00
111.67     576.00
111.77     553.00
111.87     567.00
111.97     514.24
112.07     554.04
112.17     513.93
112.27     564.00
112.37     524.37
112.47     582.00
112.57     578.00
112.67     558.00
112.77     589.00
112.87     562.00
112.97     588.00
113.07     614.00
113.17     633.98
113.27     619.00
113.37     617.00
113.47     623.00
113.57     608.00
113.67     626.81
113.77     639.94
113.87     625.58
113.97     687.00
114.07     676.00
114.17     731.00
114.27     702.00
114.37     712.00
114.47     726.00
114.57     873.52
114.67     815.00
114.77     915.00
114.87     988.00
114.97    1093.00
115.07    1230.00
115.17    1398.38
115.27    1539.22
115.37    1638.08
115.47    1747.80
115.57    2090.64
115.67    2456.00
115.77    2717.00
115.87    3067.00
115.97    3251.40
116.07    3570.00
116.17    3864.97
116.27    4202.58
116.37    4675.00
116.47    5183.00
116.57    5533.91
116.67    5673.49
116.77    6174.00
116.87    6535.14
116.97    6622.00
117.07    6906.00
117.17    7109.00
117.27    6977.00
117.37    7085.00
117.47    6820.09
117.57    6878.00
117.67    6504.48
117.77    6256.00
117.87    5967.00
117.97    5583.00
118.07    5345.10
118.17    4930.00
118.27    4672.00
118.37    4358.00
118.47    4038.97
118.57    3693.00
118.67    3263.00
118.77    2948.00
118.87    2701.78
118.97    2487.24
119.07    2142.33
119.17    1906.00
119.27    1721.00
119.37    1593.00
119.47    1487.00
119.57    1262.05
119.67    1250.00
119.77    1143.00
119.87     990.00
119.97    1019.93
120.07     909.00
120.17     914.00
120.27     820.00
120.37     751.00
120.47     781.80
120.57     724.00
120.67     673.00
120.77     761.00
120.87     680.00
120.97     687.00
121.07     631.00
121.17     641.78
121.27     664.79
121.37     622.00
121.47     619.00
121.57     634.00
121.67     596.99
121.77     625.00
121.87     686.16
121.97     600.00
122.07     573.41
122.17     673.75
122.27     598.00
122.37     649.00
122.47     636.00
122.57     667.00
122.67     636.00
122.77     647.00
122.87     678.95
122.97     685.00
123.07     673.00
123.17     652.00
123.27     708.03
123.37     674.00
123.47     725.65
123.57     649.00
123.67     659.00
123.77     664.56
123.87     641.23
123.97     722.00
124.07     709.00
124.17     642.00
124.27     682.00
124.37     662.00
124.47     653.96
124.57     628.45
124.67     630.37
124.77     640.00
124.87     623.00
124.97     602.00
