  9.97     611.00
 10.07     614.59
 10.17     564.00
 10.27     634.00
 10.37     609.00
 10.47     584.15
 10.57     584.00
 10.67     562.00
 10.77     573.00
 10.87     603.00
 10.97     613.00
 11.07     590.00
 11.17     595.23
 11.27     599.97
 11.37     577.00
 11.47     589.68
 11.57     600.00
 11.67     619.00
 11.77     615.00
 11.87     584.00
 11.97     673.24
 12.07     701.61
 12.17     701.00
 12.27     679.00
 12.37     661.00
 12.47     612.00
 12.57     641.10
 12.67     559.00
 12.77     551.00
 12.87     563.00
 12.97     621.69
 13.07     609.00
 13.17     587.48
 13.27     540.00
 13.37     540.00
 13.47     613.71
 13.57     578.00
 13.67     592.00
 13.77     548.66
 13.87     553.98
 13.97     566.00
 14.07     583.00
 14.17     589.00
 14.27     577.00
 14.37     582.36
 14.47     571.00
 14.57     576.00
 14.67     550.00
 14.77     589.00
 14.87     577.63
 14.97     563.02
 15.07     572.82
 15.17     539.43
 15.27     583.62
 15.37     546.00
 15.47     525.31
 15.57     579.00
 15.67     562.00
 15.77     541.58
 15.87     577.00
 15.97     543.89
 16.07     537.53
 16.17     530.00
 16.27     581.00
 16.37     613.25
 16.47     521.00
 16.57     588.17
 16.67     527.00
 16.77     581.00
 16.87     557.00
 16.97     554.43
 17.07     568.00
 17.17     583.00
 17.27     542.81
 17.37     563.00
 17.47     561.30
 17.57     551.00
 17.67     599.00
 17.77     528.00
 17.87     553.00
 17.97     544.00
 18.07     591.00
 18.17     546.40
 18.27     587.17
 18.37     560.00
 18.47     551.00
 18.57     581.62
 18.67     560.00
 18.77     547.00
 18.87     569.97
 18.97     555.00
 19.07     534.75
 19.17     592.00
 19.27     616.00
 19.37     537.00
 19.47     546.00
 19.57     529.86
 19.67     519.43
 19.77     574.00
 19.87     528.03
 19.97     567.00
 20.07     519.72
 20.17     540.65
 20.27     528.11
 20.37     600.00
 20.47     556.00
 20.57     523.00
 20.67     584.04
 20.77     557.03
 20.87     577.12
 20.97     550.00
 21.07     540.00
 21.17     590.00
 21.27     550.00
 21.37     564.07
 21.47     544.53
 21.57     570.00
 21.67     536.00
 21.77     532.00
 21.87     552.00
 21.97     528.86
 22.07     571.00
 22.17     569.00
 22.27     544.00
 22.37     561.00
 22.47     519.00
 22.57     550.00
 22.67     553.00
 22.77     577.00
 22.87     529.00
 22.97     579.94
 23.07     589.07
 23.17     531.00
 23.27     545.42
 23.37     526.47
 23.47     583.00
 23.57     551.00
 23.67     525.00
 23.77     550.00
 23.87     528.00
 23.97     590.00
 24.07     503.78
 24.17     579.00
 24.27     615.00
 24.37     557.79
 24.47     586.00
 24.57     622.00
 24.67     661.37
 24.77     640.00
 24.87     623.00
 24.97     561.77
 25.07     563.91
 25.17     588.00
 25.27     525.63
 25.37     564.00
 25.47     512.38
 25.57     548.00
 25.67     534.00
 25.77     568.56
 25.87     564.35
 25.97     578.00
 26.07     554.87
 26.17     554.00
 26.27     518.00
 26.37     561.16
 26.47     559.00
 26.57     518.00
 26.67     520.28
 26.77     516.02
 26.87     579.00
 26.97     515.00
 27.07     520.04
 27.17     497.32
 27.27     522.00
 27.37     577.56
 27.47     580.00
 27.57     561.00
 27.67     572.00
 27.77     586.00
 27.87     578.00
 27.97     626.32
 28.07     755.00
 28.17     865.00
 28.27     954.26
 28.37     922.00
 28.47     841.00
 28.57     751.88
 28.67     695.24
 28.77     750.00
 28.87     866.16
 28.97     807.71
 29.07     763.00
 29.17     773.49
 29.27     694.08
 29.37     590.00
 29.47     572.00
 29.57     578.00
 29.67     565.00
 29.77     561.00
 29.87     582.00
 29.97     631.00
 30.07     511.08
 30.17     575.39
 30.27     499.55
 30.37     549.00
 30.47     537.00
 30.57     562.00
 30.67     586.45
 30.77     550.64
 30.87     582.00
 30.97     585.00
 31.07     585.71
 31.17     609.00
 31.27     508.00
 31.37     534.00
 31.47     533.00
 31.57     518.00
 31.67     515.00
 31.77     495.15
 31.87     533.00
 31.97     523.13
 32.07     525.00
 32.17     502.15
 32.27     518.00
 32.37     509.00
 32.47     585.00
 32.57     553.00
 32.67     560.00
 32.77     494.58
 32.87     542.00
 32.97     572.91
 33.07     551.00
 33.17     543.45
 33.27     551.00
 33.37     551.00
 33.47     554.00
 33.57     580.00
 33.67     680.54
 33.77     776.00
 33.87     888.87
 33.97    1058.00
 34.07    1105.00
 34.17     994.00
 34.27     879.00
 34.37     776.00
 34.47     627.42
 34.57     565.17
 34.67     600.47
 34.77     553.91
 34.87     538.00
 34.97     507.73
 35.07     550.00
 35.17     498.77
 35.27     521.00
 35.37     516.00
 35.47     528.00
 35.57     525.71
 35.67     540.00
 35.77     504.30
 35.87     496.00
 35.97     488.00
 36.07     532.00
 36.17     490.00
 36.27     486.00
 36.37     508.00
 36.47     499.59
 36.57     493.73
 36.67     544.00
 36.77     530.00
 36.87     519.83
 36.97     517.00
 37.07     490.00
 37.17     526.00
 37.27     491.00
 37.37     540.18
 37.47     544.00
 37.57     518.00
 37.67     493.00
 37.77     519.00
 37.87     511.00
 37.97     540.00
 38.07     549.85
 38.17     492.90
 38.27     527.00
 38.37     515.00
 38.47     537.83
 38.57     486.00
 38.67     530.38
 38.77     547.00
 38.87     556.00
 38.97     499.00
 39.07     483.00
 39.17     450.00
 39.27     476.00
 39.37     496.00
 39.47     515.00
 39.57     505.00
 39.67     471.00
 39.77     494.00
 39.87     509.00
 39.97     490.75
 40.07     487.00
 40.17     453.00
 40.27     503.00
 40.37     526.26
 40.47     516.00
 40.57     496.82
 40.67     521.00
 40.77     474.00
 40.87     547.97
 40.97     495.92
 41.07     489.00
 41.17     507.47
 41.27     512.00
 41.37     501.00
 41.47     514.00
 41.57     501.00
 41.67     540.00
 41.77     505.59
 41.87     469.00
 41.97     484.10
 42.07     536.00
 42.17     560.00
 42.27     544.00
 42.37     531.50
 42.47     630.29
 42.57     579.17
 42.67     610.52
 42.77     589.00
 42.87     592.00
 42.97     525.00
 43.07     558.00
 43.17     539.00
 43.27     523.00
 43.37     534.00
 43.47     492.00
 43.57     449.00
 43.67     550.00
 43.77     516.00
 43.87     502.00
 43.97     485.00
 44.07     477.00
 44.17     504.00
 44.27     507.00
 44.37     534.18
 44.47     482.00
 44.57     480.26
 44.67     533.00
 44.77     507.21
 44.87     484.00
 44.97     458.76
 45.07     476.00
 45.17     495.00
 45.27     505.00
 45.37     467.00
 45.47     495.00
 45.57     534.00
 45.67     476.87
 45.77     526.00
 45.87     502.00
 45.97     505.00
 46.07     504.64
 46.17     530.00
 46.27     508.00
 46.37     486.00
 46.47     520.00
 46.57     521.00
 46.67     504.00
 46.77     542.66
 46.87     507.00
 46.97     528.64
 47.07     506.00
 47.17     485.40
 47.27     513.00
 47.37     551.17
 47.47     515.46
 47.57     542.00
 47.67     558.53
 47.77     580.40
 47.87     605.00
 47.97     566.00
 48.07     583.00
 48.17     609.00
 48.27     563.00
 48.37     499.00
 48.47     527.00
 48.57     537.00
 48.67     490.00
 48.77     509.70
 48.87     547.00
 48.97     511.19
 49.07     584.00
 49.17     633.44
 49.27     623.52
 49.37     638.00
 49.47     678.42
 49.57     804.00
 49.67     879.95
 49.77    1122.00
 49.87    1488.00
 49.97    1806.00
 50.07    2239.42
 50.17    2496.68
 50.27    2424.00
 50.37    2341.00
 50.47    1965.18
 50.57    1532.09
 50.67    1142.65
 50.77     869.47
 50.87     709.00
 50.97     679.00
 51.07     600.97
 51.17     584.76
 51.27     655.00
 51.37     556.00
 51.47     566.00
 51.57     592.09
 51.67     540.00
 51.77     522.00
 51.87     554.00
 51.97     548.00
 52.07     531.00
 52.17     522.88
 52.27     570.77
 52.37     547.95
 52.47     533.39
 52.57     573.00
 52.67     591.00
 52.77     595.00
 52.87     660.00
 52.97     730.00
 53.07     774.00
 53.17     910.00
 53.27     971.00
 53.37    1151.00
 53.47    1156.00
 53.57    1170.00
 53.67    1099.00
 53.77     922.00
 53.87     872.00
 53.97     776.62
 54.07     659.00
 54.17     614.00
 54.27     590.00
 54.37     564.00
 54.47     503.83
 54.57     546.00
 54.67     532.24
 54.77     555.00
 54.87     502.41
 54.97     558.00
 55.07     514.96
 55.17     549.00
 55.27     575.25
 55.37     585.74
 55.47     598.00
 55.57     590.74
 55.67     554.00
 55.77     600.84
 55.87     585.00
 55.97     592.62
 56.07     702.15
 56.17     746.46
 56.27     947.52
 56.37    1082.00
 56.47    1502.05
 56.57    1704.00
 56.67    2196.00
 56.77    2433.00
 56.87    2642.00
 56.97    2535.38
 57.07    2365.99
 57.17    2039.00
 57.27    1689.00
 57.37    1239.29
 57.47    1072.00
 57.57     879.00
 57.67     725.76
 57.77     713.00
 57.87     717.00
 57.97     694.00
 58.07     663.00
 58.17     670.00
 58.27     778.00
 58.37     886.66
 58.47     993.00
 58.57    1143.00
 58.67    1334.70
 58.77    1408.00
 58.87    1536.00
 58.97    1527.56
 59.07    1636.00
 59.17    1521.00
 59.27    1494.00
 59.37    1410.31
 59.47    1310.72
 59.57    1207.31
 59.67    1091.56
 59.77    1166.87
 59.87    1234.00
 59.97    1327.00
 60.07    1493.00
 60.17    1568.00
 60.27    1597.00
 60.37    1502.00
 60.47    1464.00
 60.57    1250.00
 60.67    1095.00
 60.77     876.48
 60.87     821.00
 60.97     658.00
 61.07     644.00
 61.17     626.70
 61.27     613.08
 61.37     635.00
 61.47     704.71
 61.57     724.00
 61.67     858.00
 61.77     950.76
 61.87    1131.87
 61.97    1197.00
 62.07    1345.00
 62.17    1422.00
 62.27    1378.00
 62.37    1407.72
 62.47    1160.00
 62.57    1102.55
 62.67     884.00
 62.77     707.00
 62.87     668.00
 62.97     603.00
 63.07     604.00
 63.17     603.26
 63.27     553.43
 63.37     519.77
 63.47     579.00
 63.57     616.00
 63.67     573.00
 63.77     578.25
 63.87     632.00
 63.97     671.00
 64.07     672.00
 64.17     751.65
 64.27     855.63
 64.37     881.00
 64.47     967.83
 64.57    1010.39
 64.67    1061.00
 64.77    1058.00
 64.87    1013.00
 64.97     905.56
 65.07     878.00
 65.17     794.39
 65.27     722.00
 65.37     676.00
 65.47     609.86
 65.57     668.00
 65.67     620.00
 65.77     578.00
 65.87     567.92
 65.97     579.61
 66.07     539.00
 66.17     540.00
 66.27     542.92
 66.37     542.00
 66.47     606.45
 66.57     544.00
 66.67     596.00
 66.77     549.00
 66.87     577.00
 66.97     566.00
 67.07     636.77
 67.17     691.27
 67.27     779.02
 67.37     848.00
 67.47    1071.00
 67.57    1302.22
 67.67    1460.91
 67.77    1757.00
 67.87    2081.95
 67.97    2281.00
 68.07    2387.00
 68.17    2365.53
 68.27    2237.00
 68.37    1962.39
 68.47    1744.02
 68.57    1454.79
 68.67    1279.00
 68.77    1003.00
 68.87     902.00
 68.97     794.00
 69.07     687.00
 69.17     668.00
 69.27     641.14
 69.37     621.30
 69.47     616.00
 69.57     622.00
 69.67     564.26
 69.77     598.00
 69.87     583.00
 69.97     594.00
 70.07     582.00
 70.17     576.70
 70.27     578.00
 70.37     548.00
 70.47     534.85
 70.57     565.84
 70.67     568.00
 70.77     592.00
 70.87     596.45
 70.97     597.91
 71.07     634.00
 71.17     699.00
 71.27     816.00
 71.37     937.00
 71.47    1123.25
 71.57    1313.11
 71.67    1513.14
 71.77    1544.00
 71.87    1718.00
 71.97    1919.00
 72.07    1938.20
 72.17    1857.00
 72.27    1792.79
 72.37    1666.75
 72.47    1528.54
 72.57    1299.74
 72.67    1151.00
 72.77    1166.77
 72.87    1000.00
 72.97     981.37
 73.07     904.21
 73.17     752.00
 73.27     739.41
 73.37     694.62
 73.47     666.00
 73.57     647.00
 73.67     610.00
 73.77     596.00
 73.87     582.00
 73.97     610.32
 74.07     552.45
 74.17     586.84
 74.27     629.00
 74.37     615.74
 74.47     673.00
 74.57     636.00
 74.67     557.27
 74.77     665.00
 74.87     653.00
 74.97     540.53
 75.07     529.00
 75.17     521.69
 75.27     597.00
 75.37     572.83
 75.47     557.02
 75.57     567.00
 75.67     605.00
 75.77     599.06
 75.87     568.00
 75.97     620.05
 76.07     602.27
 76.17     647.00
 76.27     699.00
 76.37     663.00
 76.47     730.00
 76.57     679.12
 76.67     661.00
 76.77     664.00
 76.87     625.99
 76.97     667.00
 77.07     638.00
 77.17     607.00
 77.27     580.00
 77.37     581.22
 77.47     521.00
 77.57     588.49
 77.67     515.00
 77.77     538.47
 77.87     532.00
 77.97     536.00
 78.07     567.81
 78.17     515.51
 78.27     537.00
 78.37     535.00
 78.47     524.00
 78.57     510.00
 78.67     568.40
 78.77     504.00
 78.87     531.00
 78.97     566.93
 79.07     534.00
 79.17     510.00
 79.27     495.49
 79.37     521.00
 79.47     515.00
 79.57     511.18
 79.67     520.00
 79.77     554.00
 79.87     587.93
 79.97     523.00
 80.07     517.91
 80.17     558.44
 80.27     579.00
 80.37     546.00
 80.47     563.00
 80.57     581.00
 80.67     619.00
 80.77     675.00
 80.87     640.00
 80.97     694.00
 81.07     760.79
 81.17     775.00
 81.27     711.00
 81.37     704.29
 81.47     768.00
 81.57     747.00
 81.67     703.23
 81.77     754.00
 81.87     730.00
 81.97     692.00
 82.07     646.00
 82.17     671.00
 82.27     643.00
 82.37     574.99
 82.47     620.00
 82.57     567.29
 82.67     591.52
 82.77     577.00
 82.87     566.00
 82.97     571.00
 83.07     577.00
 83.17     580.00
 83.27     558.00
 83.37     558.00
 83.47     527.00
 83.57     569.00
 83.67     562.00
 83.77     535.02
 83.87     601.00
 83.97     611.65
 84.07     622.44
 84.17     563.00
 84.27     533.00
 84.37     552.00
 84.47     589.00
 84.57     537.00
 84.67     510.63
 84.77     588.15
 84.87     487.00
 84.97     534.00
 85.07     492.00
 85.17     526.00
 85.27     556.58
 85.37     555.00
 85.47     529.00
 85.57     541.00
 85.67     485.00
 85.77     513.00
 85.87     530.00
 85.97     527.00
 86.07     498.84
 86.17     491.90
 86.27     545.00
 86.37     531.79
 86.47     530.00
 86.57     573.00
 86.67     544.00
 86.77     581.00
 86.87     590.23
 86.97     582.00
 87.07     583.29
 87.17     634.00
 87.27     656.76
 87.37     566.00
 87.47     607.25
 87.57     654.00
 87.67     659.00
 87.77     680.00
 87.87     637.00
 87.97     605.00
 88.07     545.00
 88.17     606.78
 88.27     596.00
 88.37     568.00
 88.47     557.00
 88.57     579.00
 88.67     553.00
 88.77     600.00
 88.87     604.00
 88.97     612.00
 89.07     569.00
 89.17     617.64
 89.27     579.00
 89.37     595.00
 89.47     633.39
 89.57     634.38
 89.67     610.67
 89.77     588.00
 89.87     520.00
 89.97     561.61
 90.07     608.96
 90.17     585.71
 90.27     486.00
 90.37     578.05
 90.47     506.26
 90.57     529.75
 90.67     531.00
 90.77     548.00
 90.87     494.00
 90.97     486.74
 91.07     505.30
 91.17     522.21
 91.27     505.00
 91.37     551.93
 91.47     546.81
 91.57     548.00
 91.67     533.97
 91.77     537.00
 91.87     560.00
 91.97     529.13
 92.07     557.00
 92.17     611.71
 92.27     583.00
 92.37     594.00
 92.47     636.00
 92.57     676.00
 92.67     659.00
 92.77     714.00
 92.87     716.00
 92.97     764.69
 93.07     747.00
 93.17     724.72
 93.27     791.00
 93.37     779.00
 93.47     809.00
 93.57     831.00
 93.67     782.26
 93.77     883.00
 93.87     774.89
 93.97     860.00
 94.07     869.00
 94.17     850.00
 94.27     878.00
 94.37     847.32
 94.47     864.69
 94.57     894.33
 94.67     915.00
 94.77     944.00
 94.87     848.69
 94.97     935.00
 95.07     893.00
 95.17     821.00
 95.27     843.00
 95.37     826.00
 95.47     761.00
 95.57     775.00
 95.67     662.20
 95.77     705.77
 95.87     695.00
 95.97     718.00
 96.07     635.69
 96.17     697.85
 96.27     730.00
 96.37     754.00
 96.47     816.00
 96.57     834.00
 96.67     892.00
 96.77     975.00
 96.87    1087.23
 96.97    1175.68
 97.07    1241.00
 97.17    1300.33
 97.27    1393.27
 97.37    1407.70
 97.47    1390.92
 97.57    1436.00
 97.67    1452.91
 97.77    1432.00
 97.87    1268.18
 97.97    1280.89
 98.07    1184.95
 98.17    1154.00
 98.27    1115.02
 98.37    1004.00
 98.47     919.00
 98.57     865.46
 98.67     888.00
 98.77     820.36
 98.87     818.00
 98.97     838.32
 99.07     769.47
 99.17     848.00
 99.27     825.00
 99.37     962.65
 99.47    1001.00
 99.57    1110.45
 99.67    1218.00
 99.77    1273.49
 99.87    1325.44
 99.97    1520.62
100.07    1640.00
100.17    1812.00
100.27    1814.00
100.37    1953.50
100.47    2028.00
100.57    2051.00
100.67    2030.00
100.77    2210.00
100.87    2146.00
100.97    2062.00
101.07    2007.15
101.17    1896.27
101.27    1891.91
101.37    1727.00
101.47    1629.00
101.57    1510.00
101.67    1480.84
101.77    1334.00
101.87    1322.00
101.97    1213.00
102.07    1188.00
102.17    1184.09
102.27    1123.62
102.37    1069.00
102.47    1098.00
102.57    1021.00
102.67    1038.00
102.77    1078.00
102.87     997.00
102.97     906.60
103.07     921.00
103.17     857.44
103.27     857.00
103.37     844.00
103.47     749.97
103.57     772.00
103.67     662.00
103.77     643.37
103.87     681.00
103.97     604.00
104.07     627.10
104.17     536.67
104.27     527.47
104.37     601.00
104.47     590.00
104.57     566.68
104.67     505.01
104.77     547.00
104.87     539.00
104.97     558.00
105.07     488.43
105.17     558.00
105.27     543.37
105.37     542.09
105.47     489.15
105.57     565.00
105.67     585.86
105.77     583.00
105.87     566.67
105.97     597.00
106.07     544.00
106.17     589.11
106.27     608.00
106.37     563.41
106.47     641.00
106.57     576.00
106.67     618.00
106.77     652.59
106.87     648.00
106.97     626.00
107.07     681.43
107.17     691.00
107.27     670.00
107.37     656.00
107.47     708.71
107.57     692.63
107.67     676.00
107.77     666.00
107.87     740.86
107.97     666.00
108.07     724.00
108.17     666.38
108.27     738.00
108.37     673.00
108.47     696.43
108.57     727.91
108.67     673.59
108.77     723.21
108.87     652.00
108.97     728.82
109.07     679.21
109.17     661.00
109.27     674.21
109.37     615.00
109.47     640.00
109.57     676.00
109.67     606.00
109.77     594.86
109.87     567.45
109.97     540.40
110.07     606.00
110.17     603.00
110.27     572.00
110.37     512.01
110.47     534.00
110.57     567.00
110.67     573.00
110.77     541.12
110.87     502.00
110.97     572.55
111.07     551.83
111.17     509.33
111.27     539.15
111.37     552.00
111.47     547.00
111.57     572.32
111.67     535.00
111.77     546.00
111.87     598.24
111.97     587.00
112.07     548.00
112.17     596.34
112.27     552.00
112.37     571.00
112.47     615.00
112.57     635.00
112.67     624.00
112.77     636.51
112.87     654.00
112.97     700.13
113.07     710.71
113.17     684.00
113.27     741.00
113.37     814.41
113.47     748.32
113.57     829.99
113.67     902.00
113.77     918.00
113.87     955.00
113.97     944.00
114.07    1027.00
114.17    1068.00
114.27    1126.37
114.37    1218.28
114.47    1431.00
114.57    1481.00
114.67    1669.00
114.77    1744.00
114.87    1920.00
114.97    2177.00
115.07    2251.22
115.17    2628.28
115.27    2801.00
115.37    3068.00
115.47    3461.90
115.57    3834.88
115.67    4198.86
115.77    4582.95
115.87    4662.00
115.97    5290.00
116.07    5469.00
116.17    5879.00
116.27    6230.00
116.37    6629.54
116.47    6681.46
116.57    7005.00
116.67    7003.00
116.77    7077.00
116.87    6828.00
116.97    6706.00
117.07    6461.25
117.17    6139.00
117.27    5854.80
117.37    5495.17
117.47    4915.00
117.57    4603.00
117.67    4451.00
117.77    3924.46
117.87    3600.00
117.97    3037.48
118.07    2870.00
118.17    2446.80
118.27    2236.00
118.37    1994.00
118.47    1732.99
118.57    1527.00
118.67    1325.91
118.77    1214.00
118.87    1134.97
118.97     995.00
119.07     925.00
119.17     916.00
119.27     778.69
119.37     764.71
119.47     770.00
119.57     732.35
119.67     718.92
119.77     664.88
119.87     623.83
119.97     628.00
120.07     595.20
120.17     627.00
120.27     640.25
120.37     588.16
120.47     566.00
120.57     552.38
120.67     569.00
120.77     618.95
120.87     582.00
120.97     580.00
121.07     580.74
121.17     558.00
121.27     543.00
121.37     632.00
121.47     568.00
121.57     605.00
121.67     584.00
121.77     573.03
121.87     624.61
121.97     568.00
122.07     589.00
122.17     633.00
122.27     630.00
122.37     626.00
122.47     583.04
122.57     607.87
122.67     608.00
122.77     643.00
122.87     638.49
122.97     616.00
123.07     640.00
123.17     626.98
123.27     623.00
123.37     641.29
123.47     672.12
123.57     623.00
123.67     596.26
123.77     678.00
123.87     638.00
123.97     658.00
124.07     603.00
124.17     654.00
124.27     610.00
124.37     601.00
124.47     639.00
124.57     618.00
124.67     621.00
124.77     534.00
124.87     548.94
124.97     595.00
