  9.97     605.00
 10.07     545.19
 10.17     600.00
 10.27     539.41
 10.37     557.00
 10.47     521.41
 10.57     587.00
 10.67     564.00
 10.77     553.22
 10.87     542.00
 10.97     578.67
 11.07     621.00
 11.17     595.00
 11.27     576.00
 11.37     546.65
 11.47     541.00
 11.57     586.51
 11.67     617.00
 11.77     607.00
 11.87     600.72
 11.97     672.00
 12.07     689.00
 12.17     701.00
 12.27     645.00
 12.37     634.00
 12.47     600.74
 12.57     584.00
 12.67     591.72
 12.77     595.00
 12.87     587.00
 12.97     570.00
 13.07     572.00
 13.17     527.99
 13.27     583.91
 13.37     587.93
 13.47     537.36
 13.57     547.00
 13.67     538.00
 13.77     566.63
 13.87     570.00
 13.97     524.00
 14.07     548.00
 14.17     565.00
 14.27     533.00
 14.37     580.30
 14.47     537.00
 14.57     525.81
 14.67     553.00
 14.77     555.00
 14.87     552.00
 14.97     550.78
 15.07     535.00
 15.17     559.00
 15.27     574.00
 15.37     579.00
 15.47     534.00
 15.57     575.72
 15.67     524.00
 15.77     546.00
 15.87     532.00
 15.97     574.00
 16.07     570.00
 16.17     559.00
 16.27     533.00
 16.37     580.00
 16.47     538.92
 16.57     569.00
 16.67     541.00
 16.77     570.00
 16.87     549.00
 16.97     564.68
 17.07     579.00
 17.17     561.00
 17.27     556.00
 17.37     536.00
 17.47     496.00
 17.57     523.01
 17.67     528.76
 17.77     553.00
 17.87     587.00
 17.97     598.20
 18.07     570.72
 18.17     584.00
 18.27     590.00
 18.37     546.00
 18.47     573.00
 18.57     520.24
 18.67     519.05
 18.77     600.52
 18.87     505.00
 18.97     575.98
 19.07     519.00
 19.17     540.00
 19.27     542.50
 19.37     567.60
 19.47     524.00
 19.57     537.00
 19.67     599.38
 19.77     527.00
 19.87     534.00
 19.97     527.00
 20.07     569.00
 20.17     579.00
 20.27     506.00
 20.37     516.00
 20.47     548.00
 20.57     551.00
 20.67     534.00
 20.77     543.00
 20.87     595.45
 20.97     589.00
 21.07     522.48
 21.17     553.00
 21.27     584.95
 21.37     564.00
 21.47     546.00
 21.57     537.00
 21.67     575.00
 21.77     553.00
 21.87     537.04
 21.97     528.00
 22.07     528.00
 22.17     526.00
 22.27     509.00
 22.37     518.50
 22.47     533.00
 22.57     544.00
 22.67     557.00
 22.77     518.67
 22.87     571.00
 22.97     572.00
 23.07     549.00
 23.17     554.00
 23.27     531.00
 23.37     538.73
 23.47     573.00
 23.57     594.00
 23.67     558.00
 23.77     587.00
 23.87     564.00
 23.97     600.00
 24.07     558.22
 24.17     578.66
 24.27     528.85
 24.37     577.00
 24.47     543.63
 24.57     598.00
 24.67     618.00
 24.77     605.00
 24.87     623.00
 24.97     609.38
 25.07     601.15
 25.17     547.62
 25.27     538.91
 25.37     569.00
 25.47     573.60
 25.57     548.70
 25.67     561.00
 25.77     562.97
 25.87     557.00
 25.97     584.89
 26.07     559.50
 26.17     569.00
 26.27     549.00
 26.37     502.28
 26.47     586.01
 26.57     554.00
 26.67     578.95
 26.77     582.00
 26.87     571.00
 26.97     586.00
 27.07     536.93
 27.17     585.00
 27.27     533.95
 27.37     556.00
 27.47     571.00
 27.57     560.19
 27.67     591.55
 27.77     578.00
 27.87     592.00
 27.97     673.00
 28.07     714.03
 28.17     839.00
 28.27     913.57
 28.37     861.00
 28.47     826.00
 28.57     778.00
 28.67     736.22
 28.77     701.41
 28.87     776.88
 28.97     866.88
 29.07     850.91
 29.17     708.21
 29.27     708.00
 29.37     624.00
 29.47     613.00
 29.57     581.00
 29.67     591.00
 29.77     576.99
 29.87     561.00
 29.97     565.06
 30.07     560.00
 30.17     594.00
 30.27     558.00
 30.37     617.00
 30.47     574.00
 30.57     607.00
 30.67     572.00
 30.77     604.00
 30.87     589.00
 30.97     595.00
 31.07     638.00
 31.17     543.96
 31.27     595.00
 31.37     545.00
 31.47     511.34
 31.57     497.18
 31.67     504.00
 31.77     553.00
 31.87     556.00
 31.97     513.00
 32.07     548.62
 32.17     539.00
 32.27     544.81
 32.37     501.78
 32.47     552.86
 32.57     535.83
 32.67     492.00
 32.77     543.00
 32.87     581.00
 32.97     504.00
 33.07     549.26
 33.17     567.00
 33.27     525.94
 33.37     559.00
 33.47     579.43
 33.57     621.00
 33.67     582.00
 33.77     712.00
 33.87     836.00
 33.97     909.00
 34.07    1045.54
 34.17    1007.00
 34.27     940.31
 34.37     866.84
 34.47     703.00
 34.57     631.00
 34.67     624.00
 34.77     556.00
 34.87     502.00
 34.97     553.00
 35.07     504.00
 35.17     529.00
 35.27     545.50
 35.37     550.00
 35.47     557.99
 35.57     480.44
 35.67     500.10
 35.77     515.00
 35.87     496.00
 35.97     481.00
 36.07     501.00
 36.17     516.89
 36.27     508.00
 36.37     485.00
 36.47     508.00
 36.57     540.04
 36.67     520.00
 36.77     546.12
 36.87     510.00
 36.97     504.00
 37.07     507.00
 37.17     513.00
 37.27     491.00
 37.37     481.00
 37.47     508.00
 37.57     503.00
 37.67     489.00
 37.77     564.01
 37.87     573.00
 37.97     491.63
 38.07     538.82
 38.17     519.65
 38.27     511.00
 38.37     555.00
 38.47     472.00
 38.57     492.00
 38.67     494.00
 38.77     478.57
 38.87     511.00
 38.97     505.00
 39.07     535.00
 39.17     489.47
 39.27     466.94
 39.37     559.00
 39.47     509.00
 39.57     514.43
 39.67     510.84
 39.77     494.00
 39.87     516.00
 39.97     487.00
 40.07     480.00
 40.17     479.00
 40.27     502.00
 40.37     443.00
 40.47     495.00
 40.57     495.00
 40.67     508.00
 40.77     538.39
 40.87     468.00
 40.97     511.00
 41.07     465.00
 41.17     515.00
 41.27     487.00
 41.37     490.00
 41.47     450.00
 41.57     441.00
 41.67     478.00
 41.77     491.00
 41.87     507.00
 41.97     495.00
 42.07     494.00
 42.17     523.38
 42.27     565.03
 42.37     506.00
 42.47     513.00
 42.57     545.00
 42.67     607.19
 42.77     628.92
 42.87     565.00
 42.97     549.00
 43.07     558.71
 43.17     521.00
 43.27     534.00
 43.37     484.07
 43.47     521.05
 43.57     507.00
 43.67     466.00
 43.77     463.98
 43.87     473.00
 43.97     537.00
 44.07     514.00
 44.17     481.00
 44.27     467.25
 44.37     450.00
 44.47     470.67
 44.57     543.00
 44.67     535.49
 44.77     514.00
 44.87     509.00
 44.97     501.00
 45.07     473.00
 45.17     533.80
 45.27     534.70
 45.37     515.41
 45.47     463.07
 45.57     508.00
 45.67     474.93
 45.77     489.00
 45.87     524.80
 45.97     476.57
 46.07     515.00
 46.17     519.00
 46.27     524.00
 46.37     487.00
 46.47     482.00
 46.57     472.00
 46.67     492.82
 46.77     480.00
 46.87     500.00
 46.97     504.16
 47.07     514.26
 47.17     496.15
 47.27     479.00
 47.37     513.36
 47.47     505.00
 47.57     551.00
 47.67     553.00
 47.77     586.00
 47.87     568.36
 47.97     603.60
 48.07     547.59
 48.17     526.00
 48.27     591.27
 48.37     516.00
 48.47     529.00
 48.57     541.00
 48.67     501.91
 48.77     558.73
 48.87     499.00
 48.97     544.00
 49.07     523.00
 49.17     579.42
 49.27     568.00
 49.37     519.03
 49.47     627.00
 49.57     665.00
 49.67     722.00
 49.77     841.34
 49.87    1129.00
 49.97    1424.00
 50.07    1838.00
 50.17    2230.00
 50.27    2347.00
 50.37    2385.34
 50.47    2047.00
 50.57    1729.00
 50.67    1328.03
 50.77    1070.02
 50.87     858.63
 50.97     761.00
 51.07     686.00
 51.17     619.00
 51.27     636.00
 51.37     575.00
 51.47     567.88
 51.57     567.00
 51.67     583.34
 51.77     498.83
 51.87     575.00
 51.97     538.00
 52.07     506.00
 52.17     538.00
 52.27     633.00
 52.37     544.18
 52.47     525.00
 52.57     563.00
 52.67     589.00
 52.77     528.38
 52.87     639.64
 52.97     660.34
 53.07     683.59
 53.17     821.00
 53.27     852.00
 53.37    1048.00
 53.47    1120.00
 53.57    1181.00
 53.67    1213.25
 53.77    1123.08
 53.87    1025.27
 53.97     870.00
 54.07     750.41
 54.17     739.00
 54.27     678.00
 54.37     618.00
 54.47     581.00
 54.57     571.00
 54.67     567.55
 54.77     597.00
 54.87     547.82
 54.97     619.00
 55.07     561.29
 55.17     585.00
 55.27     561.59
 55.37     599.00
 55.47     587.22
 55.57     594.18
 55.67     612.13
 55.77     545.00
 55.87     628.16
 55.97     610.00
 56.07     690.43
 56.17     707.00
 56.27     869.56
 56.37     941.00
 56.47    1214.82
 56.57    1438.00
 56.67    1797.00
 56.77    2196.00
 56.87    2334.64
 56.97    2527.00
 57.07    2437.00
 57.17    2320.00
 57.27    1953.00
 57.37    1698.00
 57.47    1379.00
 57.57    1086.59
 57.67     947.00
 57.77     823.00
 57.87     748.00
 57.97     743.00
 58.07     651.62
 58.17     659.28
 58.27     692.00
 58.37     724.25
 58.47     825.40
 58.57     855.00
 58.67     936.00
 58.77    1052.16
 58.87    1150.00
 58.97    1192.00
 59.07    1308.00
 59.17    1234.10
 59.27    1207.12
 59.37    1237.95
 59.47    1251.00
 59.57    1160.22
 59.67    1242.00
 59.77    1175.00
 59.87    1210.00
 59.97    1286.00
 60.07    1312.00
 60.17    1383.00
 60.27    1470.00
 60.37    1454.49
 60.47    1475.00
 60.57    1321.00
 60.67    1193.00
 60.77    1053.63
 60.87     967.00
 60.97     802.00
 61.07     731.00
 61.17     679.58
 61.27     625.00
 61.37     638.00
 61.47     644.71
 61.57     741.00
 61.67     777.00
 61.77     889.00
 61.87     934.50
 61.97    1133.34
 62.07    1249.00
 62.17    1343.28
 62.27    1334.00
 62.37    1352.88
 62.47    1242.00
 62.57    1185.41
 62.67     985.00
 62.77     840.00
 62.87     798.00
 62.97     764.05
 63.07     660.95
 63.17     623.00
 63.27     630.33
 63.37     589.60
 63.47     569.86
 63.57     603.00
 63.67     527.11
 63.77     614.45
 63.87     637.82
 63.97     594.00
 64.07     696.99
 64.17     729.00
 64.27     757.33
 64.37     863.04
 64.47     881.72
 64.57     936.00
 64.67    1017.00
 64.77     943.27
 64.87     986.08
 64.97    1015.00
 65.07     908.87
 65.17     832.00
 65.27     842.00
 65.37     729.00
 65.47     733.55
 65.57     652.47
 65.67     681.24
 65.77     582.00
 65.87     646.33
 65.97     558.00
 66.07     599.00
 66.17     538.00
 66.27     589.00
 66.37     562.00
 66.47     564.00
 66.57     553.37
 66.67     553.71
 66.77     544.76
 66.87     626.44
 66.97     581.00
 67.07     623.00
 67.17     634.83
 67.27     763.28
 67.37     748.00
 67.47     917.00
 67.57    1080.38
 67.67    1315.13
 67.77    1491.00
 67.87    1738.00
 67.97    2040.00
 68.07    2204.00
 68.17    2316.00
 68.27    2399.00
 68.37    2337.00
 68.47    2007.52
 68.57    1922.00
 68.67    1519.11
 68.77    1391.00
 68.87    1130.00
 68.97    1012.42
 69.07     796.00
 69.17     746.00
 69.27     695.00
 69.37     632.00
 69.47     639.23
 69.57     571.85
 69.67     611.32
 69.77     574.58
 69.87     580.00
 69.97     592.00
 70.07     582.87
 70.17     595.00
 70.27     570.17
 70.37     545.00
 70.47     554.00
 70.57     539.00
 70.67     581.84
 70.77     577.86
 70.87     576.08
 70.97     610.67
 71.07     665.89
 71.17     711.00
 71.27     750.80
 71.37     790.00
 71.47     937.00
 71.57    1082.00
 71.67    1235.00
 71.77    1456.00
 71.87    1565.00
 71.97    1689.62
 72.07    1888.70
 72.17    1882.00
 72.27    1792.00
 72.37    1756.00
 72.47    1620.00
 72.57    1437.25
 72.67    1354.48
 72.77    1131.00
 72.87    1007.00
 72.97     924.00
 73.07     872.00
 73.17     767.00
 73.27     728.27
 73.37     623.00
 73.47     681.84
 73.57     624.00
 73.67     640.00
 73.77     585.00
 73.87     583.00
 73.97     631.66
 74.07     604.72
 74.17     557.00
 74.27     572.00
 74.37     599.95
 74.47     622.94
 74.57     635.00
 74.67     617.00
 74.77     534.00
 74.87     620.00
 74.97     664.00
 75.07     549.19
 75.17     632.00
 75.27     529.05
 75.37     598.00
 75.47     577.00
 75.57     566.00
 75.67     597.00
 75.77     534.10
 75.87     540.77
 75.97     545.13
 76.07     593.33
 76.17     609.00
 76.27     607.86
 76.37     675.00
 76.47     695.00
 76.57     652.16
 76.67     648.09
 76.77     690.00
 76.87     715.05
 76.97     694.06
 77.07     641.00
 77.17     572.00
 77.27     622.00
 77.37     579.78
 77.47     589.00
 77.57     502.00
 77.67     550.00
 77.77     508.08
 77.87     503.79
 77.97     506.00
 78.07     484.20
 78.17     511.00
 78.27     501.00
 78.37     520.00
 78.47     500.00
 78.57     526.00
 78.67     512.29
 78.77     483.67
 78.87     521.00
 78.97     552.66
 79.07     486.00
 79.17     519.00
 79.27     518.00
 79.37     494.17
 79.47     533.00
 79.57     477.24
 79.67     483.00
 79.77     532.63
 79.87     514.00
 79.97     524.48
 80.07     498.00
 80.17     506.29
 80.27     523.00
 80.37     586.96
 80.47     583.76
 80.57     556.00
 80.67     587.17
 80.77     661.66
 80.87     618.00
 80.97     693.53
 81.07     666.00
 81.17     673.00
 81.27     711.34
 81.37     766.00
 81.47     688.00
 81.57     777.00
 81.67     788.35
 81.77     695.00
 81.87     734.26
 81.97     703.00
 82.07     675.00
 82.17     686.00
 82.27     614.71
 82.37     628.00
 82.47     606.00
 82.57     598.00
 82.67     589.00
 82.77     538.00
 82.87     551.00
 82.97     559.00
 83.07     492.00
 83.17     571.00
 83.27     582.00
 83.37     542.86
 83.47     503.22
 83.57     549.00
 83.67     508.90
 83.77     514.40
 83.87     545.00
 83.97     525.00
 84.07     553.00
 84.17     515.00
 84.27     588.56
 84.37     563.00
 84.47     558.00
 84.57     547.00
 84.67     567.00
 84.77     525.00
 84.87     551.00
 84.97     529.00
 85.07     504.00
 85.17     511.07
 85.27     527.00
 85.37     511.00
 85.47     515.58
 85.57     539.00
 85.67     513.00
 85.77     503.00
 85.87     501.00
 85.97     501.00
 86.07     492.29
 86.17     511.00
 86.27     513.00
 86.37     552.00
 86.47     575.00
 86.57     524.00
 86.67     544.00
 86.77     543.00
 86.87     507.00
 86.97     516.51
 87.07     569.64
 87.17     565.00
 87.27     604.33
 87.37     618.75
 87.47     591.68
 87.57     662.00
 87.67     656.44
 87.77     628.96
 87.87     597.00
 87.97     633.92
 88.07     593.00
 88.17     548.48
 88.27     532.69
 88.37     613.00
 88.47     521.07
 88.57     554.00
 88.67     566.00
 88.77     557.00
 88.87     599.00
 88.97     565.00
 89.07     564.09
 89.17     593.00
 89.27     599.69
 89.37     620.00
 89.47     557.52
 89.57     594.00
 89.67     623.61
 89.77     559.51
 89.87     601.00
 89.97     529.00
 90.07     521.57
 90.17     594.68
 90.27     533.00
 90.37     534.10
 90.47     544.00
 90.57     560.18
 90.67     502.00
 90.77     533.00
 90.87     523.24
 90.97     553.00
 91.07     484.00
 91.17     503.00
 91.27     533.00
 91.37     501.00
 91.47     538.42
 91.57     495.32
 91.67     474.00
 91.77     519.75
 91.87     511.00
 91.97     516.00
 92.07     534.00
 92.17     503.71
 92.27     535.00
 92.37     545.00
 92.47     570.86
 92.57     511.00
 92.67     589.00
 92.77     579.00
 92.87     646.00
 92.97     637.12
 93.07     694.00
 93.17     681.00
 93.27     733.00
 93.37     736.92
 93.47     741.00
 93.57     740.00
 93.67     827.00
 93.77     755.00
 93.87     799.26
 93.97     793.00
 94.07     842.00
 94.17     804.00
 94.27     865.20
 94.37     822.00
 94.47     830.00
 94.57     847.00
 94.67     886.00
 94.77     863.00
 94.87     899.00
 94.97     874.00
 95.07     884.00
 95.17     839.00
 95.27     907.00
 95.37     783.11
 95.47     858.00
 95.57     746.00
 95.67     790.00
 95.77     780.00
 95.87     683.00
 95.97     737.54
 96.07     743.00
 96.17     645.00
 96.27     683.00
 96.37     730.00
 96.47     704.25
 96.57     804.06
 96.67     800.00
 96.77     837.00
 96.87     925.00
 96.97    1050.34
 97.07    1071.00
 97.17    1098.00
 97.27    1172.00
 97.37    1279.00
 97.47    1283.00
 97.57    1404.00
 97.67    1394.00
 97.77    1360.65
 97.87    1394.93
 97.97    1345.59
 98.07    1365.00
 98.17    1310.06
 98.27    1208.00
 98.37    1125.24
 98.47    1026.00
 98.57    1070.00
 98.67    1036.00
 98.77     910.00
 98.87     909.00
 98.97     877.00
 99.07     870.10
 99.17     820.00
 99.27     826.00
 99.37     866.22
 99.47     909.00
 99.57    1010.08
 99.67    1035.00
 99.77    1126.20
 99.87    1172.00
 99.97    1340.86
100.07    1411.00
100.17    1534.00
100.27    1568.85
100.37    1721.00
100.47    1883.00
100.57    1779.70
100.67    1988.00
100.77    1926.00
100.87    2012.00
100.97    2075.39
101.07    2004.00
101.17    2056.00
101.27    1870.09
101.37    1898.00
101.47    1694.00
101.57    1700.00
101.67    1617.93
101.77    1495.00
101.87    1496.00
101.97    1440.00
102.07    1278.00
102.17    1329.00
102.27    1238.00
102.37    1188.00
102.47    1186.00
102.57    1219.98
102.67    1143.00
102.77    1104.00
102.87    1065.00
102.97    1117.00
103.07     992.00
103.17     988.07
103.27     970.00
103.37     916.00
103.47     921.00
103.57     817.57
103.67     809.84
103.77     781.00
103.87     718.00
103.97     684.00
104.07     674.02
104.17     662.88
104.27     657.00
104.37     590.59
104.47     535.42
104.57     610.00
104.67     553.00
104.77     526.79
104.87     517.00
104.97     557.00
105.07     518.58
105.17     534.19
105.27     548.00
105.37     502.70
105.47     514.00
105.57     483.14
105.67     524.00
105.77     529.00
105.87     530.68
105.97     571.00
106.07     495.65
106.17     526.41
106.27     590.24
106.37     600.95
106.47     606.80
106.57     621.85
106.67     636.85
106.77     599.00
106.87     663.38
106.97     623.00
107.07     624.00
107.17     664.00
107.27     643.00
107.37     679.00
107.47     680.25
107.57     716.29
107.67     674.05
107.77     674.00
107.87     677.03
107.97     664.97
108.07     672.44
108.17     675.00
108.27     709.70
108.37     685.00
108.47     641.00
108.57     671.00
108.67     726.88
108.77     727.62
108.87     675.00
108.97     722.50
109.07     696.00
109.17     658.79
109.27     702.17
109.37     689.00
109.47     651.00
109.57     679.10
109.67     659.25
109.77     647.65
109.87     683.00
109.97     632.00
110.07     595.00
110.17     559.79
110.27     597.00
110.37     579.80
110.47     536.75
110.57     524.73
110.67     550.00
110.77     563.00
110.87     557.00
110.97     544.00
111.07     535.11
111.17     587.00
111.27     556.00
111.37     535.00
111.47     565.68
111.57     548.95
111.67     503.95
111.77     537.94
111.87     620.00
111.97     561.00
112.07     580.60
112.17     552.00
112.27     535.00
112.37     579.20
112.47     605.29
112.57     563.75
112.67     624.01
112.77     584.64
112.87     590.50
112.97     583.00
113.07     627.00
113.17     605.20
113.27     603.00
113.37     584.00
113.47     600.00
113.57     696.94
113.67     637.00
113.77     660.76
113.87     698.00
113.97     741.36
114.07     759.42
114.17     815.00
114.27     801.00
114.37     921.49
114.47     918.58
114.57    1089.00
114.67    1195.00
114.77    1233.20
114.87    1355.00
114.97    1540.02
115.07    1788.00
115.17    1918.49
115.27    2241.00
115.37    2552.00
115.47    2711.00
115.57    3023.00
115.67    3357.00
115.77    3690.00
115.87    4089.00
115.97    4243.00
116.07    4647.69
116.17    5136.00
116.27    5460.30
116.37    5668.00
116.47    6182.08
116.57    6246.86
116.67    6401.76
116.77    6721.00
116.87    6770.00
116.97    6924.00
117.07    6712.00
117.17    6547.00
117.27    6409.33
117.37    6096.70
117.47    5920.00
117.57    5579.00
117.67    5230.38
117.77    4904.95
117.87    4569.00
117.97    4432.00
118.07    3914.64
118.17    3586.00
118.27    3340.00
118.37    2922.00
118.47    2740.30
118.57    2350.01
118.67    2170.00
118.77    1874.00
118.87    1683.00
118.97    1596.17
119.07    1395.73
119.17    1261.00
119.27    1135.62
119.37    1032.00
119.47    1043.00
119.57     907.72
119.67     804.59
119.77     760.20
119.87     707.98
119.97     715.58
120.07     719.10
120.17     683.00
120.27     643.00
120.37     667.50
120.47     574.00
120.57     568.58
120.67     630.16
120.77     580.00
120.87     593.00
120.97     570.00
121.07     606.15
121.17     542.00
121.27     552.00
121.37     549.00
121.47     561.00
121.57     534.00
121.67     594.00
121.77     583.00
121.87     544.90
121.97     565.00
122.07     586.45
122.17     592.00
122.27     573.40
122.37     627.00
122.47     561.48
122.57     634.00
122.67     657.96
122.77     604.02
122.87     622.00
122.97     581.00
123.07     668.42
123.17     648.15
123.27     657.00
123.37     649.69
123.47     630.00
123.57     578.71
123.67     642.21
123.77     619.00
123.87     626.00
123.97     651.00
124.07     580.00
124.17     617.57
124.27     642.00
124.37     555.00
124.47     557.34
124.57     590.00
124.67     612.25
124.77     624.00
124.87     595.00
124.97     628.00
