  9.97     604.48
 10.07     599.00
 10.17     593.00
 10.27     568.84
 10.37     579.00
 10.47     632.00
 10.57     596.00
 10.67     593.15
 10.77     614.39
 10.87     586.00
 10.97     601.00
 11.07     582.00
 11.17     574.00
 11.27     568.00
 11.37     589.00
 11.47     600.00
 11.57     560.00
 11.67     607.80
 11.77     654.00
 11.87     634.00
 11.97     685.00
 12.07     664.00
 12.17     721.98
 12.27     646.00
 12.37     690.00
 12.47     661.75
 12.57     629.00
 12.67     588.74
 12.77     595.00
 12.87     591.00
 12.97     601.00
 13.07     552.87
 13.17     616.88
 13.27     565.00
 13.37     570.00
 13.47     565.00
 13.57     535.31
 13.67     577.00
 13.77     573.00
 13.87     578.00
 13.97     553.00
 14.07     582.00
 14.17     593.00
 14.27     559.00
 14.37     562.00
 14.47     557.00
 14.57     535.00
 14.67     574.00
 14.77     614.71
 14.87     567.00
 14.97     546.00
 15.07     532.00
 15.17     560.00
 15.27     544.20
 15.37     572.44
 15.47     547.00
 15.57     553.00
 15.67     560.00
 15.77     594.95
 15.87     535.00
 15.97     578.00
 16.07     532.00
 16.17     551.00
 16.27     576.00
 16.37     595.00
 16.47     550.00
 16.57     583.61
 16.67     533.00
 16.77     510.00
 16.87     504.00
 16.97     575.00
 17.07     591.00
 17.17     581.00
 17.27     522.67
 17.37     546.00
 17.47     572.84
 17.57     562.00
 17.67     581.32
 17.77     549.00
 17.87     552.00
 17.97     592.65
 18.07     551.00
 18.17     572.07
 18.27     541.00
 18.37     558.00
 18.47     528.00
 18.57     538.00
 18.67     563.00
 18.77     555.00
 18.87     525.00
 18.97     562.00
 19.07     559.00
 19.17     593.00
 19.27     545.00
 19.37     565.54
 19.47     589.02
 19.57     573.00
 19.67     579.00
 19.77     591.00
 19.87     541.00
 19.97     559.00
 20.07     514.51
 20.17     566.00
 20.27     600.00
 20.37     612.00
 20.47     563.00
 20.57     545.00
 20.67     578.97
 20.77     560.45
 20.87     566.65
 20.97     531.00
 21.07     563.00
 21.17     564.11
 21.27     585.91
 21.37     543.17
 21.47     567.00
 21.57     536.88
 21.67     591.58
 21.77     557.43
 21.87     536.00
 21.97     527.00
 22.07     561.61
 22.17     535.00
 22.27     592.61
 22.37     553.00
 22.47     543.00
 22.57     563.58
 22.67     531.00
 22.77     513.00
 22.87     536.71
 22.97     506.00
 23.07     545.00
 23.17     594.25
 23.27     542.00
 23.37     545.00
 23.47     592.86
 23.57     504.00
 23.67     521.00
 23.77     560.00
 23.87     580.19
 23.97     572.00
 24.07     539.94
 24.17     529.19
 24.27     515.64
 24.37     589.00
 24.47     606.60
 24.57     636.79
 24.67     600.93
 24.77     655.31
 24.87     666.00
 24.97     559.67
 25.07     567.00
 25.17     572.00
 25.27     581.30
 25.37     585.19
 25.47     574.00
 25.57     570.00
 25.67     563.00
 25.77     513.40
 25.87     580.00
 25.97     547.00
 26.07     559.74
 26.17     534.97
 26.27     559.00
 26.37     574.00
 26.47     519.57
 26.57     518.00
 26.67     542.00
 26.77     548.00
 26.87     513.00
 26.97     570.00
 27.07     557.00
 27.17     518.00
 27.27     598.00
 27.37     573.00
 27.47     589.00
 27.57     580.07
 27.67     552.00
 27.77     571.00
 27.87     598.00
 27.97     660.00
 28.07     787.00
 28.17     909.00
 28.27     880.00
 28.37     964.00
 28.47     756.00
 28.57     684.00
 28.67     671.00
 28.77     709.44
 28.87     780.43
 28.97     805.00
 29.07     775.00
 29.17     712.48
 29.27     641.00
 29.37     603.77
 29.47     587.16
 29.57     631.00
 29.67     627.00
 29.77     574.00
 29.87     610.00
 29.97     576.00
 30.07     536.00
 30.17     561.25
 30.27     550.73
 30.37     510.13
 30.47     561.00
 30.57     558.00
 30.67     569.41
 30.77     618.00
 30.87     580.56
 30.97     591.53
 31.07     618.00
 31.17     604.00
 31.27     576.00
 31.37     539.00
 31.47     579.67
 31.57     529.67
 31.67     561.00
 31.77     569.66
 31.87     555.30
 31.97     543.00
 32.07     494.75
 32.17     491.51
 32.27     539.63
 32.37     542.18
 32.47     569.00
 32.57     546.35
 32.67     523.00
 32.77     545.00
 32.87     520.00
 32.97     553.00
 33.07     522.00
 33.17     493.84
 33.27     515.72
 33.37     566.00
 33.47     607.53
 33.57     609.00
 33.67     624.00
 33.77     777.00
 33.87     834.00
 33.97     933.78
 34.07    1024.00
 34.17     972.00
 34.27     860.26
 34.37     719.46
 34.47     627.00
 34.57     583.00
 34.67     574.41
 34.77     538.54
 34.87     536.00
 34.97     502.04
 35.07     475.00
 35.17     475.09
 35.27     494.00
 35.37     521.76
 35.47     535.00
 35.57     473.00
 35.67     480.03
 35.77     528.00
 35.87     539.38
 35.97     508.00
 36.07     552.74
 36.17     547.00
 36.27     479.00
 36.37     477.62
 36.47     514.70
 36.57     518.02
 36.67     482.00
 36.77     537.92
 36.87     532.00
 36.97     512.00
 37.07     499.00
 37.17     528.25
 37.27     521.76
 37.37     547.00
 37.47     544.24
 37.57     515.00
 37.67     508.29
 37.77     542.00
 37.87     483.95
 37.97     508.52
 38.07     496.00
 38.17     507.92
 38.27     506.00
 38.37     513.00
 38.47     562.00
 38.57     507.00
 38.67     508.00
 38.77     540.60
 38.87     491.00
 38.97     464.00
 39.07     494.00
 39.17     516.00
 39.27     487.26
 39.37     467.00
 39.47     534.00
 39.57     491.00
 39.67     476.03
 39.77     527.74
 39.87     490.41
 39.97     507.26
 40.07     450.00
 40.17     485.00
 40.27     502.00
 40.37     524.00
 40.47     486.70
 40.57     516.98
 40.67     496.00
 40.77     505.00
 40.87     515.61
 40.97     478.22
 41.07     492.00
 41.17     537.00
 41.27     540.62
 41.37     490.00
 41.47     495.00
 41.57     477.37
 41.67     462.91
 41.77     468.40
 41.87     520.28
 41.97     552.64
 42.07     505.84
 42.17     567.22
 42.27     557.00
 42.37     548.00
 42.47     569.00
 42.57     582.71
 42.67     633.60
 42.77     629.09
 42.87     553.00
 42.97     611.21
 43.07     592.27
 43.17     507.00
 43.27     515.00
 43.37     520.00
 43.47     492.00
 43.57     502.00
 43.67     488.00
 43.77     500.03
 43.87     482.00
 43.97     478.48
 44.07     501.62
 44.17     494.00
 44.27     479.00
 44.37     472.00
 44.47     537.90
 44.57     489.00
 44.67     498.00
 44.77     447.00
 44.87     505.87
 44.97     518.00
 45.07     498.66
 45.17     542.41
 45.27     508.00
 45.37     508.00
 45.47     521.05
 45.57     526.00
 45.67     543.44
 45.77     478.86
 45.87     514.21
 45.97     498.00
 46.07     499.00
 46.17     527.00
 46.27     533.00
 46.37     470.00
 46.47     518.00
 46.57     491.00
 46.67     501.00
 46.77     543.00
 46.87     528.00
 46.97     553.00
 47.07     539.23
 47.17     533.04
 47.27     537.00
 47.37     498.00
 47.47     510.00
 47.57     580.53
 47.67     602.00
 47.77     543.00
 47.87     640.00
 47.97     591.58
 48.07     584.00
 48.17     531.15
 48.27     524.20
 48.37     525.21
 48.47     496.02
 48.57     558.00
 48.67     504.00
 48.77     533.00
 48.87     523.00
 48.97     602.38
 49.07     587.21
 49.17     544.49
 49.27     664.21
 49.37     676.00
 49.47     708.97
 49.57     777.90
 49.67     925.00
 49.77    1127.00
 49.87    1412.15
 49.97    1778.99
 50.07    2283.00
 50.17    2503.00
 50.27    2521.00
 50.37    2281.00
 50.47    1846.00
 50.57    1495.51
 50.67    1175.50
 50.77     809.00
 50.87     689.17
 50.97     664.00
 51.07     649.00
 51.17     626.00
 51.27     621.00
 51.37     629.74
 51.47     587.00
 51.57     572.00
 51.67     502.77
 51.77     546.00
 51.87     602.00
 51.97     555.00
 52.07     571.92
 52.17     497.02
 52.27     557.00
 52.37     544.00
 52.47     564.00
 52.57     580.00
 52.67     605.05
 52.77     616.00
 52.87     681.00
 52.97     657.00
 53.07     800.00
 53.17     932.00
 53.27     993.00
 53.37    1104.00
 53.47    1109.00
 53.57    1151.00
 53.67    1033.00
 53.77     961.48
 53.87     881.55
 53.97     805.05
 54.07     659.00
 54.17     642.00
 54.27     558.00
 54.37     595.00
 54.47     561.00
 54.57     586.00
 54.67     497.64
 54.77     582.44
 54.87     562.00
 54.97     547.00
 55.07     577.00
 55.17     547.95
 55.27     544.00
 55.37     560.00
 55.47     566.00
 55.57     508.00
 55.67     616.00
 55.77     563.00
 55.87     615.00
 55.97     648.00
 56.07     662.00
 56.17     736.00
 56.27     923.00
 56.37    1143.66
 56.47    1390.00
 56.57    1721.00
 56.67    2251.23
 56.77    2468.00
 56.87    2603.00
 56.97    2603.00
 57.07    2410.02
 57.17    2079.28
 57.27    1657.99
 57.37    1272.00
 57.47    1059.00
 57.57     881.00
 57.67     711.00
 57.77     745.78
 57.87     661.00
 57.97     668.52
 58.07     670.00
 58.17     737.00
 58.27     818.00
 58.37     882.00
 58.47     946.76
 58.57    1122.42
 58.67    1298.00
 58.77    1331.58
 58.87    1507.03
 58.97    1564.00
 59.07    1561.00
 59.17    1558.13
 59.27    1524.00
 59.37    1330.00
 59.47    1294.00
 59.57    1172.00
 59.67    1163.00
 59.77    1099.00
 59.87    1175.00
 59.97    1316.42
 60.07    1413.00
 60.17    1505.08
 60.27    1586.00
 60.37    1545.38
 60.47    1420.00
 60.57    1299.00
 60.67    1120.00
 60.77     939.38
 60.87     805.00
 60.97     753.72
 61.07     632.80
 61.17     653.21
 61.27     683.04
 61.37     681.79
 61.47     682.00
 61.57     751.58
 61.67     869.86
 61.77     960.28
 61.87    1109.76
 61.97    1292.00
 62.07    1343.00
 62.17    1405.65
 62.27    1346.84
 62.37    1299.00
 62.47    1251.68
 62.57    1040.00
 62.67     878.00
 62.77     839.64
 62.87     681.00
 62.97     630.75
 63.07     612.96
 63.17     593.00
 63.27     517.00
 63.37     620.00
 63.47     576.00
 63.57     601.00
 63.67     576.00
 63.77     582.00
 63.87     651.00
 63.97     697.00
 64.07     671.00
 64.17     811.83
 64.27     773.00
 64.37     892.00
 64.47     976.07
 64.57    1018.00
 64.67    1024.00
 64.77    1008.00
 64.87     910.38
 64.97     918.72
 65.07     811.00
 65.17     787.43
 65.27     757.00
 65.37     713.00
 65.47     655.00
 65.57     579.98
 65.67     572.00
 65.77     587.00
 65.87     578.87
 65.97     565.00
 66.07     543.00
 66.17     549.22
 66.27     536.28
 66.37     562.00
 66.47     563.00
 66.57     568.00
 66.67     581.00
 66.77     581.00
 66.87     588.00
 66.97     597.00
 67.07     677.00
 67.17     647.83
 67.27     724.00
 67.37     911.00
 67.47     994.00
 67.57    1361.00
 67.67    1521.00
 67.77    1871.02
 67.87    2021.00
 67.97    2289.00
 68.07    2422.00
 68.17    2306.88
 68.27    2163.00
 68.37    2105.00
 68.47    1879.00
 68.57    1511.00
 68.67    1305.00
 68.77    1021.00
 68.87     887.00
 68.97     772.00
 69.07     724.00
 69.17     646.00
 69.27     625.73
 69.37     583.00
 69.47     592.00
 69.57     630.00
 69.67     562.00
 69.77     542.00
 69.87     600.00
 69.97     584.00
 70.07     575.00
 70.17     546.00
 70.27     543.00
 70.37     565.00
 70.47     578.26
 70.57     557.00
 70.67     581.00
 70.77     588.00
 70.87     603.00
 70.97     589.00
 71.07     627.93
 71.17     736.00
 71.27     838.14
 71.37     880.00
 71.47    1040.00
 71.57    1274.00
 71.67    1410.00
 71.77    1631.00
 71.87    1799.00
 71.97    1890.00
 72.07    1946.00
 72.17    1850.00
 72.27    1835.00
 72.37    1667.02
 72.47    1540.91
 72.57    1419.00
 72.67    1172.00
 72.77    1010.00
 72.87    1064.09
 72.97     876.00
 73.07     858.08
 73.17     744.00
 73.27     705.00
 73.37     661.00
 73.47     607.00
 73.57     591.00
 73.67     628.00
 73.77     586.35
 73.87     566.00
 73.97     629.00
 74.07     592.00
 74.17     589.00
 74.27     606.00
 74.37     635.00
 74.47     592.96
 74.57     575.77
 74.67     646.00
 74.77     643.00
 74.87     602.91
 74.97     512.05
 75.07     563.00
 75.17     546.06
 75.27     556.00
 75.37     576.28
 75.47     533.00
 75.57     576.77
 75.67     559.27
 75.77     569.00
 75.87     562.24
 75.97     637.49
 76.07     618.00
 76.17     612.00
 76.27     676.00
 76.37     697.00
 76.47     689.00
 76.57     696.83
 76.67     707.00
 76.77     711.32
 76.87     691.39
 76.97     681.10
 77.07     607.00
 77.17     596.00
 77.27     566.00
 77.37     555.00
 77.47     545.00
 77.57     515.55
 77.67     508.00
 77.77     569.95
 77.87     517.00
 77.97     505.99
 78.07     530.00
 78.17     520.00
 78.27     494.23
 78.37     502.00
 78.47     530.17
 78.57     545.00
 78.67     577.08
 78.77     534.00
 78.87     528.83
 78.97     555.63
 79.07     521.00
 79.17     488.00
 79.27     497.00
 79.37     535.57
 79.47     534.11
 79.57     577.55
 79.67     507.40
 79.77     524.00
 79.87     560.42
 79.97     535.00
 80.07     534.00
 80.17     566.00
 80.27     555.58
 80.37     597.00
 80.47     582.00
 80.57     583.46
 80.67     614.00
 80.77     639.92
 80.87     647.94
 80.97     683.00
 81.07     712.00
 81.17     744.00
 81.27     774.00
 81.37     803.36
 81.47     680.00
 81.57     762.00
 81.67     756.00
 81.77     716.28
 81.87     749.00
 81.97     727.00
 82.07     720.86
 82.17     697.00
 82.27     620.65
 82.37     635.00
 82.47     649.75
 82.57     587.00
 82.67     630.68
 82.77     553.31
 82.87     577.00
 82.97     561.18
 83.07     539.76
 83.17     525.57
 83.27     531.00
 83.37     524.33
 83.47     571.00
 83.57     571.00
 83.67     580.07
 83.77     530.47
 83.87     562.00
 83.97     555.00
 84.07     565.00
 84.17     587.00
 84.27     544.00
 84.37     602.00
 84.47     577.85
 84.57     500.00
 84.67     510.40
 84.77     561.58
 84.87     547.00
 84.97     522.00
 85.07     522.10
 85.17     523.00
 85.27     532.00
 85.37     518.00
 85.47     523.00
 85.57     510.00
 85.67     529.00
 85.77     528.00
 85.87     516.20
 85.97     552.00
 86.07     528.67
 86.17     499.00
 86.27     516.62
 86.37     548.00
 86.47     569.00
 86.57     581.00
 86.67     565.00
 86.77     594.00
 86.87     568.25
 86.97     579.00
 87.07     627.00
 87.17     579.00
 87.27     616.81
 87.37     683.00
 87.47     674.00
 87.57     606.00
 87.67     682.00
 87.77     625.18
 87.87     572.70
 87.97     622.00
 88.07     592.00
 88.17     606.00
 88.27     578.00
 88.37     600.00
 88.47     562.58
 88.57     595.95
 88.67     518.00
 88.77     605.00
 88.87     579.28
 88.97     597.60
 89.07     632.61
 89.17     552.51
 89.27     604.00
 89.37     597.69
 89.47     649.00
 89.57     557.20
 89.67     544.00
 89.77     561.00
 89.87     572.00
 89.97     596.00
 90.07     527.00
 90.17     586.66
 90.27     512.00
 90.37     526.00
 90.47     532.07
 90.57     510.00
 90.67     540.14
 90.77     522.00
 90.87     527.00
 90.97     526.00
 91.07     540.38
 91.17     477.00
 91.27     570.00
 91.37     528.00
 91.47     559.00
 91.57     498.91
 91.67     553.00
 91.77     550.53
 91.87     532.00
 91.97     561.00
 92.07     533.00
 92.17     577.00
 92.27     569.00
 92.37     621.00
 92.47     569.00
 92.57     627.24
 92.67     709.78
 92.77     665.00
 92.87     730.00
 92.97     694.00
 93.07     767.00
 93.17     751.69
 93.27     866.00
 93.37     807.00
 93.47     796.03
 93.57     858.93
 93.67     820.00
 93.77     860.00
 93.87     852.42
 93.97     807.00
 94.07     862.00
 94.17     934.00
 94.27     870.00
 94.37     864.74
 94.47     903.00
 94.57     838.00
 94.67     848.13
 94.77     906.00
 94.87     849.58
 94.97     902.57
 95.07     836.47
 95.17     867.00
 95.27     845.00
 95.37     766.90
 95.47     710.77
 95.57     743.00
 95.67     751.41
 95.77     678.42
 95.87     712.34
 95.97     701.98
 96.07     663.00
 96.17     690.04
 96.27     740.92
 96.37     762.00
 96.47     783.47
 96.57     790.00
 96.67     957.00
 96.77     945.00
 96.87     982.00
 96.97    1199.24
 97.07    1151.76
 97.17    1278.00
 97.27    1406.33
 97.37    1408.00
 97.47    1442.00
 97.57    1394.00
 97.67    1363.31
 97.77    1427.00
 97.87    1366.31
 97.97    1219.00
 98.07    1140.71
 98.17    1122.00
 98.27    1053.66
 98.37     967.00
 98.47     946.00
 98.57     922.00
 98.67     907.68
 98.77     805.00
 98.87     856.67
 98.97     801.00
 99.07     828.00
 99.17     810.33
 99.27     868.00
 99.37     955.00
 99.47    1067.00
 99.57    1104.05
 99.67    1144.00
 99.77    1275.00
 99.87    1375.36
 99.97    1435.55
100.07    1674.90
100.17    1713.00
100.27    1829.00
100.37    1936.71
100.47    2024.00
100.57    2073.00
100.67    2153.00
100.77    1970.60
100.87    2034.00
100.97    2013.20
101.07    1918.00
101.17    1845.00
101.27    1834.00
101.37    1667.74
101.47    1584.00
101.57    1459.66
101.67    1422.00
101.77    1357.00
101.87    1311.00
101.97    1225.84
102.07    1222.00
102.17    1232.05
102.27    1110.14
102.37    1104.26
102.47    1083.00
102.57    1088.00
102.67    1108.00
102.77    1007.50
102.87     999.13
102.97    1024.07
103.07     923.00
103.17     897.94
103.27     829.00
103.37     796.00
103.47     820.64
103.57     710.00
103.67     702.00
103.77     685.70
103.87     677.00
103.97     635.21
104.07     607.00
104.17     617.00
104.27     543.21
104.37     544.00
104.47     566.30
104.57     583.00
104.67     521.00
104.77     523.00
104.87     528.00
104.97     536.00
105.07     525.00
105.17     579.00
105.27     578.76
105.37     565.00
105.47     529.00
105.57     523.00
105.67     528.00
105.77     543.00
105.87     589.00
105.97     563.86
106.07     555.00
106.17     545.44
106.27     624.32
106.37     559.00
106.47     652.67
106.57     654.58
106.67     653.63
106.77     606.00
106.87     650.00
106.97     667.00
107.07     663.00
107.17     660.45
107.27     680.00
107.37     689.41
107.47     716.00
107.57     744.46
107.67     712.61
107.77     665.00
107.87     665.00
107.97     711.00
108.07     737.15
108.17     657.00
108.27     628.00
108.37     711.52
108.47     714.00
108.57     692.44
108.67     668.00
108.77     688.91
108.87     707.87
108.97     671.00
109.07     696.00
109.17     706.22
109.27     675.00
109.37     601.76
109.47     677.74
109.57     663.00
109.67     591.76
109.77     595.41
109.87     610.94
109.97     589.97
110.07     594.00
110.17     579.26
110.27     592.56
110.37     584.00
110.47     581.00
110.57     555.00
110.67     503.00
110.77     540.00
110.87     491.18
110.97     516.00
111.07     537.00
111.17     532.77
111.27     490.84
111.37     560.00
111.47     554.33
111.57     513.00
111.67     512.00
111.77     526.00
111.87     587.00
111.97     562.51
112.07     546.00
112.17     608.19
112.27     622.48
112.37     609.00
112.47     559.67
112.57     551.00
112.67     646.33
112.77     632.65
112.87     681.39
112.97     698.00
113.07     677.67
113.17     732.00
113.27     697.00
113.37     764.00
113.47     815.14
113.57     789.62
113.67     827.00
113.77     863.00
113.87     947.00
113.97     997.00
114.07    1054.47
114.17    1059.46
114.27    1188.00
114.37    1179.67
114.47    1300.93
114.57    1430.00
114.67    1531.00
114.77    1629.61
114.87    1823.05
114.97    2092.59
115.07    2401.00
115.17    2536.00
115.27    2857.82
115.37    3074.00
115.47    3406.38
115.57    3904.70
115.67    3935.00
115.77    4679.10
115.87    4973.91
115.97    5074.00
116.07    5747.28
116.17    6004.00
116.27    6295.00
116.37    6555.00
116.47    6815.00
116.57    6967.00
116.67    6950.00
116.77    6876.00
116.87    6845.37
116.97    6687.00
117.07    6571.62
117.17    6304.00
117.27    5767.00
117.37    5454.15
117.47    4974.00
117.57    4509.00
117.67    4411.00
117.77    3742.31
117.87    3611.00
117.97    3148.24
118.07    2760.83
118.17    2439.24
118.27    2299.00
118.37    1971.00
118.47    1818.74
118.57    1525.00
118.67    1445.14
118.77    1243.00
118.87    1073.42
118.97     983.98
119.07     912.00
119.17     858.00
119.27     843.00
119.37     819.00
119.47     768.00
119.57     689.00
119.67     663.56
119.77     642.00
119.87     610.00
119.97     581.00
120.07     587.91
120.17     614.00
120.27     585.26
120.37     570.00
120.47     552.00
120.57     608.00
120.67     610.96
120.77     600.00
120.87     532.46
120.97     579.00
121.07     569.43
121.17     532.13
121.27     591.30
121.37     552.00
121.47     593.00
121.57     584.00
121.67     587.00
121.77     594.00
121.87     556.62
121.97     629.73
122.07     625.46
122.17     632.63
122.27     613.00
122.37     625.00
122.47     682.00
122.57     626.00
122.67     616.00
122.77     663.00
122.87     620.00
122.97     677.00
123.07     663.00
123.17     647.48
123.27     665.88
123.37     598.00
123.47     669.11
123.57     621.00
123.67     636.00
123.77     661.00
123.87     587.17
123.97     655.00
124.07     626.68
124.17     581.63
124.27     595.00
124.37     553.05
124.47     613.00
124.57     573.00
124.67     616.00
124.77     625.00
124.87     602.00
124.97     569.00
