  9.97     654.00
 10.07     661.00
 10.17     647.00
 10.27     627.00
 10.37     686.00
 10.47     620.57
 10.57     645.00
 10.67     732.00
 10.77     683.35
 10.87     631.58
 10.97     639.46
 11.07     602.50
 11.17     692.00
 11.27     671.00
 11.37     693.87
 11.47     652.54
 11.57     694.00
 11.67     717.00
 11.77     671.28
 11.87     727.00
 11.97     762.00
 12.07     802.00
 12.17     799.00
 12.27     758.00
 12.37     790.00
 12.47     788.48
 12.57     674.21
 12.67     645.31
 12.77     628.00
 12.87     639.89
 12.97     622.00
 13.07     611.00
 13.17     601.00
 13.27     597.71
 13.37     691.00
 13.47     652.00
 13.57     608.00
 13.67     676.71
 13.77     609.00
 13.87     590.03
 13.97     620.00
 14.07     638.00
 14.17     638.00
 14.27     639.00
 14.37     657.00
 14.47     584.18
 14.57     631.00
 14.67     620.34
 14.77     606.00
 14.87     585.00
 14.97     574.00
 15.07     577.57
 15.17     596.00
 15.27     594.00
 15.37     628.09
 15.47     603.00
 15.57     610.00
 15.67     589.00
 15.77     612.00
 15.87     575.00
 15.97     590.25
 16.07     618.00
 16.17     606.00
 16.27     677.00
 16.37     581.00
 16.47     571.30
 16.57     576.00
 16.67     657.67
 16.77     611.00
 16.87     633.96
 16.97     592.00
 17.07     625.31
 17.17     663.86
 17.27     594.00
 17.37     608.00
 17.47     636.00
 17.57     593.00
 17.67     572.95
 17.77     605.00
 17.87     592.59
 17.97     595.00
 18.07     622.00
 18.17     587.00
 18.27     605.93
 18.37     609.00
 18.47     651.10
 18.57     599.00
 18.67     569.68
 18.77     576.78
 18.87     583.93
 18.97     599.00
 19.07     582.30
 19.17     633.00
 19.27     567.00
 19.37     573.00
 19.47     619.00
 19.57     645.33
 19.67     629.25
 19.77     570.00
 19.87     594.00
 19.97     614.00
 20.07     589.99
 20.17     557.00
 20.27     590.00
 20.37     544.00
 20.47     603.00
 20.57     619.00
 20.67     591.03
 20.77     608.00
 20.87     650.69
 20.97     552.00
 21.07     543.00
 21.17     592.00
 21.27     629.88
 21.37     555.75
 21.47     635.85
 21.57     572.00
 21.67     590.00
 21.77     579.00
 21.87     599.00
 21.97     626.96
 22.07     593.00
 22.17     632.34
 22.27     621.00
 22.37     592.00
 22.47     633.00
 22.57     619.00
 22.67     643.00
 22.77     580.29
 22.87     570.00
 22.97     623.00
 23.07     572.00
 23.17     610.00
 23.27     628.00
 23.37     582.00
 23.47     592.00
 23.57     605.58
 23.67     618.00
 23.77     615.32
 23.87     585.00
 23.97     606.98
 24.07     603.00
 24.17     563.61
 24.27     648.00
 24.37     599.77
 24.47     627.00
 24.57     622.68
 24.67     684.00
 24.77     711.00
 24.87     724.74
 24.97     730.62
 25.07     695.38
 25.17     670.00
 25.27     625.00
 25.37     623.00
 25.47     568.42
 25.57     658.00
 25.67     614.36
 25.77     586.00
 25.87     587.00
 25.97     654.00
 26.07     596.09
 26.17     621.00
 26.27     619.70
 26.37     615.51
 26.47     644.00
 26.57     653.98
 26.67     627.26
 26.77     576.28
 26.87     652.72
 26.97     624.22
 27.07     696.00
 27.17     681.50
 27.27     657.55
 27.37     722.00
 27.47     706.00
 27.57     741.00
 27.67     722.00
 27.77     794.00
 27.87     900.00
 27.97    1175.27
 28.07    1551.00
 28.17    2300.00
 28.27    3288.00
 28.37    3935.00
 28.47    3917.00
 28.57    3394.71
 28.67    2630.46
 28.77    1905.00
 28.87    1971.00
 28.97    2264.94
 29.07    2490.00
 29.17    2424.00
 29.27    1938.52
 29.37    1636.00
 29.47    1135.13
 29.57     909.23
 29.67     911.00
 29.77     702.49
 29.87     777.00
 29.97     701.00
 30.07     688.00
 30.17     609.88
 30.27     704.00
 30.37     578.79
 30.47     717.00
 30.57     578.52
 30.67     665.34
 30.77     678.00
 30.87     637.12
 30.97     651.29
 31.07     730.00
 31.17     735.00
 31.27     638.97
 31.37     685.00
 31.47     622.00
 31.57     561.76
 31.67     640.00
 31.77     605.18
 31.87     631.00
 31.97     623.00
 32.07     596.00
 32.17     604.00
 32.27     608.00
 32.37     604.00
 32.47     636.00
 32.57     579.00
 32.67     627.00
 32.77     567.23
 32.87     632.00
 32.97     629.00
 33.07     534.04
 33.17     588.00
 33.27     598.55
 33.37     570.00
 33.47     666.00
 33.57     582.58
 33.67     642.00
 33.77     649.12
 33.87     759.00
 33.97     875.00
 34.07     930.97
 34.17    1110.53
 34.27    1085.97
 34.37    1126.00
 34.47     904.05
 34.57     818.00
 34.67     734.00
 34.77     650.00
 34.87     579.20
 34.97     600.00
 35.07     622.00
 35.17     629.00
 35.27     603.00
 35.37     585.00
 35.47     607.17
 35.57     559.26
 35.67     581.00
 35.77     551.00
 35.87     569.00
 35.97     597.00
 36.07     531.00
 36.17     532.00
 36.27     517.82
 36.37     570.30
 36.47     524.00
 36.57     517.00
 36.67     550.48
 36.77     545.00
 36.87     528.36
 36.97     573.00
 37.07     598.24
 37.17     563.00
 37.27     541.00
 37.37     506.00
 37.47     564.63
 37.57     575.00
 37.67     572.00
 37.77     578.00
 37.87     598.54
 37.97     643.00
 38.07     604.88
 38.17     641.42
 38.27     663.00
 38.37     638.00
 38.47     564.00
 38.57     607.51
 38.67     632.17
 38.77     593.00
 38.87     565.08
 38.97     544.00
 39.07     576.00
 39.17     537.00
 39.27     596.54
 39.37     590.97
 39.47     555.00
 39.57     567.25
 39.67     541.49
 39.77     559.00
 39.87     550.00
 39.97     561.00
 40.07     530.00
 40.17     582.85
 40.27     515.00
 40.37     551.00
 40.47     544.70
 40.57     574.00
 40.67     528.00
 40.77     593.15
 40.87     523.61
 40.97     552.64
 41.07     514.00
 41.17     512.00
 41.27     526.10
 41.37     492.00
 41.47     556.00
 41.57     574.72
 41.67     574.00
 41.77     533.00
 41.87     542.39
 41.97     544.00
 42.07     542.00
 42.17     508.81
 42.27     547.00
 42.37     605.09
 42.47     612.59
 42.57     579.33
 42.67     575.07
 42.77     613.00
 42.87     665.97
 42.97     656.00
 43.07     616.24
 43.17     590.00
 43.27     515.00
 43.37     606.48
 43.47     550.00
 43.57     553.00
 43.67     560.00
 43.77     548.00
 43.87     532.00
 43.97     559.00
 44.07     553.00
 44.17     522.82
 44.27     554.00
 44.37     557.00
 44.47     528.00
 44.57     522.10
 44.67     586.73
 44.77     536.00
 44.87     535.00
 44.97     506.26
 45.07     575.00
 45.17     591.48
 45.27     604.00
 45.37     578.34
 45.47     586.40
 45.57     583.00
 45.67     552.00
 45.77     594.00
 45.87     578.00
 45.97     568.00
 46.07     582.85
 46.17     547.00
 46.27     546.00
 46.37     525.37
 46.47     515.00
 46.57     562.00
 46.67     507.00
 46.77     574.00
 46.87     550.25
 46.97     532.00
 47.07     523.00
 47.17     495.00
 47.27     566.00
 47.37     572.00
 47.47     533.57
 47.57     542.25
 47.67     581.00
 47.77     605.81
 47.87     605.31
 47.97     608.00
 48.07     663.00
 48.17     583.00
 48.27     689.00
 48.37     611.00
 48.47     580.00
 48.57     627.00
 48.67     543.00
 48.77     610.00
 48.87     621.00
 48.97     621.45
 49.07     610.00
 49.17     580.39
 49.27     601.00
 49.37     593.01
 49.47     602.95
 49.57     624.00
 49.67     666.94
 49.77     760.62
 49.87     883.10
 49.97    1078.00
 50.07    1308.00
 50.17    1759.00
 50.27    2272.00
 50.37    2582.81
 50.47    2804.00
 50.57    2620.00
 50.67    2299.16
 50.77    1988.78
 50.87    1438.00
 50.97    1158.00
 51.07     905.00
 51.17     820.00
 51.27     727.00
 51.37     738.90
 51.47     666.00
 51.57     632.00
 51.67     680.00
 51.77     681.62
 51.87     593.00
 51.97     634.00
 52.07     636.00
 52.17     568.07
 52.27     604.92
 52.37     670.00
 52.47     649.00
 52.57     599.00
 52.67     602.00
 52.77     620.00
 52.87     620.00
 52.97     620.46
 53.07     686.64
 53.17     696.00
 53.27     790.00
 53.37     817.72
 53.47     993.00
 53.57    1094.16
 53.67    1147.50
 53.77    1221.96
 53.87    1293.00
 53.97    1209.00
 54.07    1137.00
 54.17     968.00
 54.27     930.00
 54.37     806.00
 54.47     748.00
 54.57     691.00
 54.67     666.00
 54.77     613.46
 54.87     657.00
 54.97     594.52
 55.07     663.00
 55.17     593.00
 55.27     610.00
 55.37     605.00
 55.47     619.00
 55.57     611.00
 55.67     632.00
 55.77     635.00
 55.87     655.00
 55.97     607.84
 56.07     703.36
 56.17     676.53
 56.27     773.30
 56.37     826.69
 56.47     929.00
 56.57    1108.29
 56.67    1325.16
 56.77    1560.40
 56.87    1930.88
 56.97    2133.52
 57.07    2518.00
 57.17    2697.00
 57.27    2630.00
 57.37    2474.00
 57.47    2164.00
 57.57    1834.36
 57.67    1407.00
 57.77    1249.84
 57.87    1045.57
 57.97     948.00
 58.07     835.00
 58.17     755.00
 58.27     771.00
 58.37     699.02
 58.47     745.00
 58.57     848.00
 58.67     830.00
 58.77     957.83
 58.87     993.00
 58.97    1121.00
 59.07    1203.24
 59.17    1202.00
 59.27    1262.00
 59.37    1253.54
 59.47    1230.00
 59.57    1292.00
 59.67    1220.00
 59.77    1126.00
 59.87    1148.00
 59.97    1089.26
 60.07    1257.00
 60.17    1291.00
 60.27    1328.10
 60.37    1435.00
 60.47    1594.00
 60.57    1634.00
 60.67    1477.00
 60.77    1501.00
 60.87    1419.00
 60.97    1132.50
 61.07    1016.46
 61.17     942.00
 61.27     864.00
 61.37     789.00
 61.47     772.00
 61.57     795.00
 61.67     820.00
 61.77     830.00
 61.87     828.00
 61.97     939.00
 62.07    1128.00
 62.17    1181.00
 62.27    1333.00
 62.37    1453.00
 62.47    1472.00
 62.57    1468.00
 62.67    1471.00
 62.77    1304.00
 62.87    1143.00
 62.97    1065.00
 63.07    1008.37
 63.17     818.00
 63.27     703.00
 63.37     741.44
 63.47     668.24
 63.57     661.90
 63.67     661.00
 63.77     640.49
 63.87     618.00
 63.97     647.85
 64.07     713.00
 64.17     653.96
 64.27     773.05
 64.37     806.00
 64.47     875.00
 64.57     877.04
 64.67    1019.00
 64.77    1096.00
 64.87    1114.80
 64.97    1208.00
 65.07    1294.13
 65.17    1257.00
 65.27    1161.00
 65.37    1154.00
 65.47    1016.00
 65.57     943.00
 65.67     852.11
 65.77     845.73
 65.87     772.00
 65.97     738.00
 66.07     737.13
 66.17     651.00
 66.27     686.00
 66.37     657.00
 66.47     675.71
 66.57     599.00
 66.67     632.00
 66.77     631.00
 66.87     603.65
 66.97     681.78
 67.07     622.00
 67.17     627.00
 67.27     654.00
 67.37     724.00
 67.47     733.00
 67.57     828.00
 67.67     964.55
 67.77    1044.53
 67.87    1221.41
 67.97    1380.02
 68.07    1755.00
 68.17    1914.00
 68.27    2168.26
 68.37    2351.00
 68.47    2500.00
 68.57    2431.00
 68.67    2346.00
 68.77    2224.54
 68.87    1891.03
 68.97    1672.00
 69.07    1429.00
 69.17    1213.00
 69.27    1072.19
 69.37     888.00
 69.47     853.00
 69.57     806.00
 69.67     770.00
 69.77     641.55
 69.87     695.96
 69.97     683.00
 70.07     664.00
 70.17     649.00
 70.27     645.00
 70.37     632.00
 70.47     674.12
 70.57     627.00
 70.67     598.44
 70.77     655.00
 70.87     614.01
 70.97     621.00
 71.07     602.70
 71.17     687.00
 71.27     697.00
 71.37     711.87
 71.47     772.25
 71.57     863.00
 71.67     949.00
 71.77     986.00
 71.87    1189.00
 71.97    1287.89
 72.07    1426.04
 72.17    1699.00
 72.27    1707.00
 72.37    1932.00
 72.47    1965.90
 72.57    1899.00
 72.67    1788.63
 72.77    1653.00
 72.87    1518.04
 72.97    1431.15
 73.07    1208.00
 73.17    1059.00
 73.27     975.28
 73.37     879.00
 73.47     799.00
 73.57     729.51
 73.67     633.77
 73.77     685.04
 73.87     599.00
 73.97     667.39
 74.07     601.00
 74.17     580.00
 74.27     623.52
 74.37     630.00
 74.47     602.66
 74.57     635.20
 74.67     602.00
 74.77     652.00
 74.87     656.00
 74.97     629.14
 75.07     710.00
 75.17     648.00
 75.27     628.89
 75.37     612.47
 75.47     674.00
 75.57     666.00
 75.67     623.91
 75.77     650.00
 75.87     623.00
 75.97     654.97
 76.07     571.11
 76.17     640.00
 76.27     691.90
 76.37     695.00
 76.47     677.00
 76.57     709.88
 76.67     787.16
 76.77     815.00
 76.87     783.00
 76.97     857.11
 77.07     837.00
 77.17     868.00
 77.27     846.71
 77.37     807.00
 77.47     749.00
 77.57     732.95
 77.67     667.00
 77.77     634.41
 77.87     606.87
 77.97     605.00
 78.07     572.00
 78.17     593.00
 78.27     565.51
 78.37     565.00
 78.47     530.73
 78.57     575.00
 78.67     582.00
 78.77     579.00
 78.87     569.00
 78.97     545.00
 79.07     586.93
 79.17     602.26
 79.27     556.00
 79.37     525.00
 79.47     529.09
 79.57     551.00
 79.67     570.00
 79.77     578.82
 79.87     571.20
 79.97     536.92
 80.07     572.00
 80.17     608.00
 80.27     593.33
 80.37     620.00
 80.47     638.61
 80.57     647.00
 80.67     699.00
 80.77     707.00
 80.87     748.00
 80.97     791.00
 81.07     868.26
 81.17     872.00
 81.27     896.38
 81.37     999.66
 81.47    1020.63
 81.57    1025.00
 81.67    1057.00
 81.77    1073.00
 81.87    1081.00
 81.97    1010.39
 82.07    1042.00
 82.17     900.00
 82.27     843.14
 82.37     854.00
 82.47     777.00
 82.57     831.12
 82.67     710.14
 82.77     748.00
 82.87     724.00
 82.97     658.00
 83.07     639.00
 83.17     616.00
 83.27     657.00
 83.37     604.11
 83.47     603.00
 83.57     588.11
 83.67     569.37
 83.77     547.00
 83.87     558.00
 83.97     581.94
 84.07     576.00
 84.17     612.00
 84.27     574.00
 84.37     593.00
 84.47     650.64
 84.57     574.53
 84.67     649.00
 84.77     611.96
 84.87     651.43
 84.97     556.64
 85.07     636.00
 85.17     618.96
 85.27     528.00
 85.37     561.00
 85.47     503.00
 85.57     606.29
 85.67     578.92
 85.77     537.00
 85.87     585.00
 85.97     573.00
 86.07     511.00
 86.17     593.00
 86.27     598.64
 86.37     543.04
 86.47     587.00
 86.57     551.50
 86.67     564.05
 86.77     567.00
 86.87     606.00
 86.97     620.97
 87.07     625.00
 87.17     655.31
 87.27     652.15
 87.37     630.05
 87.47     673.27
 87.57     643.00
 87.67     724.00
 87.77     646.00
 87.87     745.00
 87.97     672.00
 88.07     736.00
 88.17     738.00
 88.27     653.93
 88.37     616.00
 88.47     690.92
 88.57     622.65
 88.67     687.00
 88.77     641.31
 88.87     575.65
 88.97     611.00
 89.07     626.00
 89.17     594.00
 89.27     598.78
 89.37     618.00
 89.47     599.00
 89.57     628.00
 89.67     663.70
 89.77     608.26
 89.87     655.00
 89.97     621.17
 90.07     656.00
 90.17     640.24
 90.27     585.18
 90.37     558.00
 90.47     624.13
 90.57     570.64
 90.67     563.00
 90.77     586.00
 90.87     561.00
 90.97     585.00
 91.07     535.00
 91.17     572.00
 91.27     533.00
 91.37     550.80
 91.47     582.40
 91.57     516.00
 91.67     547.00
 91.77     535.03
 91.87     536.00
 91.97     579.00
 92.07     559.42
 92.17     533.00
 92.27     514.99
 92.37     565.00
 92.47     599.00
 92.57     609.00
 92.67     569.00
 92.77     595.00
 92.87     640.00
 92.97     622.00
 93.07     611.00
 93.17     699.00
 93.27     727.50
 93.37     686.00
 93.47     703.00
 93.57     697.00
 93.67     731.00
 93.77     746.57
 93.87     804.00
 93.97     856.00
 94.07     849.00
 94.17     800.00
 94.27     829.62
 94.37     815.80
 94.47     876.00
 94.57     872.00
 94.67     877.00
 94.77     864.61
 94.87     921.00
 94.97     958.99
 95.07    1002.00
 95.17     962.00
 95.27     980.00
 95.37     964.00
 95.47     945.05
 95.57     962.11
 95.67     930.00
 95.77     941.00
 95.87     948.00
 95.97     850.00
 96.07     823.00
 96.17     844.00
 96.27     830.00
 96.37     785.00
 96.47     821.00
 96.57     797.82
 96.67     784.10
 96.77     826.90
 96.87     799.00
 96.97     821.11
 97.07     866.00
 97.17     942.00
 97.27    1043.00
 97.37    1043.00
 97.47    1069.36
 97.57    1209.00
 97.67    1312.85
 97.77    1279.64
 97.87    1462.00
 97.97    1432.00
 98.07    1565.59
 98.17    1525.00
 98.27    1574.00
 98.37    1563.00
 98.47    1493.00
 98.57    1469.75
 98.67    1451.00
 98.77    1303.00
 98.87    1282.15
 98.97    1157.18
 99.07    1164.00
 99.17    1071.76
 99.27    1057.35
 99.37    1015.10
 99.47     966.00
 99.57     887.29
 99.67     959.00
 99.77     960.00
 99.87     957.00
 99.97    1117.00
100.07    1052.00
100.17    1140.00
100.27    1221.00
100.37    1303.00
100.47    1382.45
100.57    1529.00
100.67    1603.00
100.77    1688.00
100.87    1764.00
100.97    1814.00
101.07    1913.00
101.17    1905.00
101.27    1962.00
101.37    2024.00
101.47    2111.00
101.57    2089.00
101.67    2017.00
101.77    1955.57
101.87    1963.87
101.97    1898.21
102.07    1864.00
102.17    1709.20
102.27    1670.00
102.37    1556.00
102.47    1509.00
102.57    1399.00
102.67    1361.00
102.77    1396.35
102.87    1292.91
102.97    1327.67
103.07    1151.00
103.17    1132.00
103.27    1203.00
103.37    1244.72
103.47    1127.00
103.57    1026.00
103.67    1073.00
103.77    1082.38
103.87    1049.62
103.97     930.00
104.07     872.00
104.17     884.00
104.27     795.00
104.37     791.00
104.47     785.00
104.57     687.73
104.67     654.00
104.77     644.04
104.87     691.00
104.97     641.00
105.07     628.00
105.17     633.00
105.27     615.00
105.37     632.00
105.47     606.00
105.57     551.00
105.67     602.00
105.77     547.00
105.87     589.94
105.97     611.22
106.07     566.00
106.17     538.92
106.27     560.00
106.37     558.00
106.47     562.68
106.57     566.76
106.67     601.00
106.77     606.76
106.87     607.00
106.97     623.95
107.07     630.50
107.17     665.00
107.27     651.04
107.37     679.00
107.47     720.00
107.57     701.68
107.67     740.85
107.77     764.00
107.87     737.00
107.97     765.00
108.07     715.00
108.17     766.00
108.27     697.00
108.37     690.37
108.47     784.22
108.57     723.18
108.67     722.00
108.77     732.00
108.87     695.23
108.97     708.00
109.07     768.15
109.17     703.00
109.27     761.00
109.37     702.00
109.47     745.10
109.57     726.00
109.67     723.72
109.77     712.00
109.87     765.07
109.97     690.00
110.07     766.75
110.17     666.38
110.27     707.86
110.37     723.11
110.47     670.58
110.57     658.00
110.67     629.30
110.77     622.00
110.87     661.78
110.97     583.36
111.07     625.11
111.17     653.67
111.27     604.00
111.37     601.00
111.47     556.75
111.57     568.31
111.67     577.00
111.77     611.50
111.87     611.23
111.97     579.00
112.07     604.14
112.17     596.00
112.27     561.00
112.37     535.47
112.47     550.00
112.57     543.71
112.67     594.00
112.77     574.00
112.87     606.00
112.97     567.00
113.07     630.00
113.17     563.94
113.27     601.00
113.37     578.73
113.47     637.01
113.57     582.84
113.67     613.00
113.77     605.00
113.87     628.81
113.97     665.00
114.07     628.43
114.17     676.00
114.27     653.42
114.37     741.17
114.47     685.00
114.57     702.00
114.67     811.00
114.77     831.00
114.87     840.00
114.97     891.00
115.07     975.00
115.17    1098.95
115.27    1152.00
115.37    1274.91
115.47    1520.68
115.57    1590.69
115.67    1797.60
115.77    2028.00
115.87    2256.13
115.97    2612.00
116.07    2983.00
116.17    3296.00
116.27    3530.61
116.37    3798.19
116.47    4343.40
116.57    4696.00
116.67    5106.00
116.77    5351.00
116.87    5703.00
116.97    6088.00
117.07    6456.00
117.17    6730.00
117.27    6934.05
117.37    7076.00
117.47    7273.00
117.57    7367.30
117.67    7328.00
117.77    7197.00
117.87    7160.05
117.97    6620.00
118.07    6396.64
118.17    6046.00
118.27    5723.00
118.37    5360.85
118.47    5059.00
118.57    4786.00
118.67    4290.00
118.77    3972.55
118.87    3564.00
118.97    3234.81
119.07    2944.00
119.17    2655.00
119.27    2461.16
119.37    2222.00
119.47    2015.00
119.57    1813.00
119.67    1604.00
119.77    1397.16
119.87    1268.17
119.97    1211.00
120.07    1185.70
120.17    1111.00
120.27     995.00
120.37     940.49
120.47     923.00
120.57     877.00
120.67     764.47
120.77     761.00
120.87     722.00
120.97     718.17
121.07     760.00
121.17     737.97
121.27     663.00
121.37     700.00
121.47     701.92
121.57     634.00
121.67     667.00
121.77     642.43
121.87     661.00
121.97     678.00
122.07     628.88
122.17     642.67
122.27     658.50
122.37     615.00
122.47     710.63
122.57     630.00
122.67     647.12
122.77     679.00
122.87     653.00
122.97     674.89
123.07     694.00
123.17     686.00
123.27     647.40
123.37     695.00
123.47     722.87
123.57     677.65
123.67     720.00
123.77     695.00
123.87     645.00
123.97     675.00
124.07     694.17
124.17     709.00
124.27     756.46
124.37     755.55
124.47     744.00
124.57     696.00
124.67     732.00
124.77     719.00
124.87     701.00
124.97     702.00
