  9.97     748.00
 10.07     757.00
 10.17     709.11
 10.27     785.02
 10.37     706.00
 10.47     760.00
 10.57     743.00
 10.67     730.75
 10.77     735.00
 10.87     709.33
 10.97     739.09
 11.07     724.00
 11.17     805.00
 11.27     737.00
 11.37     718.59
 11.47     755.00
 11.57     763.00
 11.67     767.00
 11.77     778.00
 11.87     813.00
 11.97     897.00
 12.07     737.60
 12.17     841.00
 12.27     815.18
 12.37     892.00
 12.47     887.00
 12.57     748.41
 12.67     746.00
 12.77     730.00
 12.87     671.00
 12.97     699.00
 13.07     741.33
 13.17     684.00
 13.27     673.00
 13.37     717.00
 13.47     658.40
 13.57     691.00
 13.67     688.23
 13.77     677.00
 13.87     745.23
 13.97     714.49
 14.07     726.00
 14.17     698.26
 14.27     692.00
 14.37     729.00
 14.47     743.74
 14.57     672.00
 14.67     671.00
 14.77     630.00
 14.87     715.17
 14.97     703.59
 15.07     690.00
 15.17     708.00
 15.27     714.60
 15.37     681.56
 15.47     715.00
 15.57     699.00
 15.67     703.00
 15.77     729.13
 15.87     690.00
 15.97     689.00
 16.07     654.36
 16.17     643.11
 16.27     702.12
 16.37     711.00
 16.47     644.00
 16.57     697.00
 16.67     684.00
 16.77     658.00
 16.87     633.00
 16.97     658.56
 17.07     654.10
 17.17     631.00
 17.27     659.11
 17.37     684.00
 17.47     705.08
 17.57     698.39
 17.67     688.00
 17.77     641.00
 17.87     638.40
 17.97     701.79
 18.07     649.60
 18.17     622.03
 18.27     610.00
 18.37     644.00
 18.47     689.00
 18.57     659.00
 18.67     614.19
 18.77     659.00
 18.87     702.00
 18.97     671.00
 19.07     663.46
 19.17     646.00
 19.27     671.14
 19.37     696.53
 19.47     679.00
 19.57     666.00
 19.67     696.00
 19.77     632.00
 19.87     676.00
 19.97     682.75
 20.07     702.00
 20.17     650.64
 20.27     647.00
 20.37     591.00
 20.47     650.00
 20.57     642.00
 20.67     618.00
 20.77     699.86
 20.87     678.12
 20.97     605.01
 21.07     653.00
 21.17     675.00
 21.27     633.06
 21.37     601.00
 21.47     598.00
 21.57     672.00
 21.67     674.40
 21.77     658.00
 21.87     604.00
 21.97     637.00
 22.07     695.00
 22.17     655.00
 22.27     626.00
 22.37     641.00
 22.47     643.00
 22.57     636.00
 22.67     654.00
 22.77     650.00
 22.87     631.00
 22.97     627.18
 23.07     610.00
 23.17     675.61
 23.27     662.18
 23.37     627.00
 23.47     683.32
 23.57     601.00
 23.67     658.00
 23.77     654.00
 23.87     601.23
 23.97     658.91
 24.07     663.00
 24.17     619.00
 24.27     639.49
 24.37     687.17
 24.47     677.00
 24.57     611.91
 24.67     738.00
 24.77     686.00
 24.87     727.00
 24.97     721.50
 25.07     729.00
 25.17     762.41
 25.27     703.38
 25.37     703.00
 25.47     694.63
 25.57     671.00
 25.67     675.00
 25.77     654.00
 25.87     676.00
 25.97     654.60
 26.07     634.00
 26.17     714.00
 26.27     606.00
 26.37     721.00
 26.47     698.00
 26.57     651.31
 26.67     722.03
 26.77     677.52
 26.87     750.36
 26.97     682.95
 27.07     701.76
 27.17     715.00
 27.27     772.89
 27.37     713.00
 27.47     811.00
 27.57     849.00
 27.67     836.05
 27.77     900.00
 27.87    1097.00
 27.97    1462.59
 28.07    2052.00
 28.17    3609.49
 28.27    5492.32
 28.37    7750.00
 28.47    9306.00
 28.57    8898.76
 28.67    7137.00
 28.77    5108.00
 28.87    3926.00
 28.97    4181.00
 29.07    4728.00
 29.17    5209.25
 29.27    4979.52
 29.37    3812.00
 29.47    2788.00
 29.57    1810.00
 29.67    1406.00
 29.77    1116.21
 29.87     947.44
 29.97     833.38
 30.07     861.00
 30.17     813.00
 30.27     807.00
 30.37     725.50
 30.47     750.15
 30.57     706.76
 30.67     769.00
 30.77     788.00
 30.87     743.00
 30.97     752.90
 31.07     830.00
 31.17     889.00
 31.27     812.00
 31.37     821.00
 31.47     748.00
 31.57     687.24
 31.67     675.61
 31.77     686.00
 31.87     720.00
 31.97     695.00
 32.07     607.19
 32.17     652.82
 32.27     677.09
 32.37     596.75
 32.47     649.76
 32.57     670.17
 32.67     711.00
 32.77     609.01
 32.87     662.00
 32.97     675.00
 33.07     607.15
 33.17     635.75
 33.27     696.94
 33.37     671.00
 33.47     665.53
 33.57     665.00
 33.67     658.14
 33.77     674.50
 33.87     735.00
 33.97     887.65
 34.07     938.00
 34.17    1147.03
 34.27    1334.49
 34.37    1377.89
 34.47    1243.00
 34.57    1101.61
 34.67    1047.41
 34.77     815.00
 34.87     768.00
 34.97     729.00
 35.07     717.00
 35.17     726.00
 35.27     630.47
 35.37     754.00
 35.47     689.00
 35.57     670.00
 35.67     609.04
 35.77     665.32
 35.87     608.04
 35.97     649.00
 36.07     591.00
 36.17     616.00
 36.27     670.15
 36.37     639.00
 36.47     585.50
 36.57     593.99
 36.67     631.00
 36.77     634.00
 36.87     619.00
 36.97     624.00
 37.07     655.00
 37.17     661.00
 37.27     644.04
 37.37     613.00
 37.47     622.00
 37.57     652.00
 37.67     668.14
 37.77     632.70
 37.87     650.87
 37.97     725.00
 38.07     783.46
 38.17     775.00
 38.27     757.79
 38.37     777.00
 38.47     795.00
 38.57     731.00
 38.67     740.00
 38.77     731.00
 38.87     642.06
 38.97     653.00
 39.07     584.00
 39.17     632.00
 39.27     611.00
 39.37     588.66
 39.47     618.00
 39.57     607.00
 39.67     608.54
 39.77     611.89
 39.87     638.00
 39.97     638.00
 40.07     624.00
 40.17     604.00
 40.27     605.00
 40.37     649.00
 40.47     635.00
 40.57     630.65
 40.67     620.63
 40.77     593.00
 40.87     605.00
 40.97     621.56
 41.07     599.00
 41.17     602.76
 41.27     635.00
 41.37     610.00
 41.47     578.74
 41.57     642.41
 41.67     589.00
 41.77     574.60
 41.87     634.40
 41.97     630.00
 42.07     669.77
 42.17     678.76
 42.27     660.00
 42.37     654.00
 42.47     655.89
 42.57     634.00
 42.67     666.11
 42.77     660.00
 42.87     673.00
 42.97     684.00
 43.07     706.00
 43.17     795.08
 43.27     750.00
 43.37     725.00
 43.47     641.00
 43.57     633.17
 43.67     652.00
 43.77     651.00
 43.87     589.00
 43.97     597.65
 44.07     636.00
 44.17     578.00
 44.27     656.08
 44.37     637.00
 44.47     650.00
 44.57     632.00
 44.67     633.00
 44.77     616.00
 44.87     698.00
 44.97     627.00
 45.07     661.76
 45.17     617.74
 45.27     618.00
 45.37     645.79
 45.47     637.00
 45.57     608.06
 45.67     638.00
 45.77     684.00
 45.87     674.98
 45.97     648.00
 46.07     606.00
 46.17     599.00
 46.27     628.00
 46.37     620.00
 46.47     659.00
 46.57     650.00
 46.67     662.00
 46.77     639.00
 46.87     629.00
 46.97     636.00
 47.07     627.00
 47.17     625.00
 47.27     641.06
 47.37     664.00
 47.47     633.00
 47.57     626.44
 47.67     658.00
 47.77     658.95
 47.87     665.00
 47.97     703.00
 48.07     709.06
 48.17     685.00
 48.27     745.00
 48.37     733.00
 48.47     768.00
 48.57     718.00
 48.67     705.52
 48.77     707.92
 48.87     655.57
 48.97     657.87
 49.07     730.12
 49.17     682.00
 49.27     630.00
 49.37     690.00
 49.47     667.00
 49.57     646.00
 49.67     707.00
 49.77     782.82
 49.87     828.00
 49.97     968.00
 50.07    1197.00
 50.17    1488.00
 50.27    1850.00
 50.37    2433.00
 50.47    3003.12
 50.57    3254.00
 50.67    3331.00
 50.77    3066.31
 50.87    2504.32
 50.97    2110.00
 51.07    1588.00
 51.17    1216.00
 51.27    1058.00
 51.37     932.73
 51.47     895.00
 51.57     816.00
 51.67     820.22
 51.77     812.00
 51.87     758.95
 51.97     759.00
 52.07     734.00
 52.17     705.46
 52.27     703.00
 52.37     755.00
 52.47     739.84
 52.57     715.00
 52.67     797.00
 52.77     704.00
 52.87     731.00
 52.97     750.00
 53.07     762.70
 53.17     727.69
 53.27     777.00
 53.37     802.00
 53.47     852.00
 53.57     903.50
 53.67    1051.80
 53.77    1186.00
 53.87    1297.61
 53.97    1369.26
 54.07    1417.12
 54.17    1302.00
 54.27    1277.00
 54.37    1076.68
 54.47     964.75
 54.57     916.00
 54.67     894.00
 54.77     785.06
 54.87     750.00
 54.97     723.00
 55.07     707.00
 55.17     730.83
 55.27     685.56
 55.37     712.00
 55.47     720.00
 55.57     656.00
 55.67     706.25
 55.77     742.48
 55.87     695.00
 55.97     686.32
 56.07     712.00
 56.17     753.00
 56.27     736.06
 56.37     754.00
 56.47     796.00
 56.57     939.36
 56.67     985.00
 56.77    1140.00
 56.87    1481.19
 56.97    1673.13
 57.07    2043.00
 57.17    2448.00
 57.27    2661.00
 57.37    2825.00
 57.47    2719.97
 57.57    2573.00
 57.67    2232.91
 57.77    1837.00
 57.87    1548.00
 57.97    1276.00
 58.07    1067.00
 58.17     987.00
 58.27     891.24
 58.37     836.00
 58.47     787.36
 58.57     800.53
 58.67     820.00
 58.77     853.79
 58.87     984.00
 58.97    1083.00
 59.07    1132.00
 59.17    1253.63
 59.27    1292.00
 59.37    1386.31
 59.47    1372.00
 59.57    1299.00
 59.67    1297.00
 59.77    1378.00
 59.87    1311.00
 59.97    1278.00
 60.07    1323.00
 60.17    1292.00
 60.27    1273.00
 60.37    1453.00
 60.47    1475.00
 60.57    1535.08
 60.67    1558.09
 60.77    1664.00
 60.87    1613.48
 60.97    1551.00
 61.07    1411.56
 61.17    1248.00
 61.27    1119.00
 61.37     937.00
 61.47     877.00
 61.57     875.16
 61.67     853.74
 61.77     848.00
 61.87     875.00
 61.97     974.62
 62.07     985.86
 62.17    1148.00
 62.27    1297.79
 62.37    1459.00
 62.47    1688.00
 62.57    1745.00
 62.67    1904.52
 62.77    1836.71
 62.87    1881.00
 62.97    1644.00
 63.07    1536.00
 63.17    1320.00
 63.27    1208.58
 63.37    1060.34
 63.47     894.22
 63.57     855.39
 63.67     859.15
 63.77     799.86
 63.87     802.52
 63.97     807.00
 64.07     814.00
 64.17     769.00
 64.27     841.23
 64.37     739.00
 64.47     868.00
 64.57     919.00
 64.67    1005.00
 64.77    1173.82
 64.87    1180.26
 64.97    1348.00
 65.07    1520.00
 65.17    1609.00
 65.27    1755.00
 65.37    1663.01
 65.47    1611.22
 65.57    1618.92
 65.67    1449.00
 65.77    1250.94
 65.87    1214.21
 65.97    1065.00
 66.07     984.00
 66.17     820.00
 66.27     861.00
 66.37     785.00
 66.47     771.00
 66.57     746.00
 66.67     682.00
 66.77     680.00
 66.87     733.17
 66.97     662.00
 67.07     719.00
 67.17     743.84
 67.27     733.00
 67.37     769.00
 67.47     744.00
 67.57     779.00
 67.67     811.00
 67.77     950.88
 67.87    1051.78
 67.97    1075.23
 68.07    1334.93
 68.17    1501.00
 68.27    1733.00
 68.37    1958.00
 68.47    2192.00
 68.57    2501.00
 68.67    2579.00
 68.77    2674.86
 68.87    2536.00
 68.97    2327.00
 69.07    2214.00
 69.17    1871.00
 69.27    1616.89
 69.37    1386.00
 69.47    1274.00
 69.57    1132.00
 69.67    1078.00
 69.77     829.05
 69.87     865.89
 69.97     898.00
 70.07     783.00
 70.17     718.00
 70.27     789.81
 70.37     797.00
 70.47     706.83
 70.57     732.00
 70.67     713.00
 70.77     679.98
 70.87     669.70
 70.97     774.28
 71.07     689.00
 71.17     762.78
 71.27     764.00
 71.37     779.00
 71.47     710.84
 71.57     790.16
 71.67     832.00
 71.77     884.38
 71.87     966.00
 71.97    1038.00
 72.07    1182.63
 72.17    1307.00
 72.27    1555.00
 72.37    1723.00
 72.47    1863.00
 72.57    2021.00
 72.67    2130.31
 72.77    2050.00
 72.87    2020.00
 72.97    1895.37
 73.07    1751.82
 73.17    1578.00
 73.27    1374.00
 73.37    1179.21
 73.47    1102.11
 73.57     998.41
 73.67     877.00
 73.77     859.00
 73.87     783.44
 73.97     769.00
 74.07     748.00
 74.17     744.00
 74.27     716.00
 74.37     760.00
 74.47     732.17
 74.57     677.93
 74.67     729.00
 74.77     661.00
 74.87     724.00
 74.97     710.00
 75.07     767.00
 75.17     750.00
 75.27     748.88
 75.37     762.52
 75.47     698.00
 75.57     756.51
 75.67     679.76
 75.77     752.00
 75.87     762.44
 75.97     743.00
 76.07     746.59
 76.17     725.00
 76.27     749.14
 76.37     774.57
 76.47     733.01
 76.57     832.72
 76.67     870.78
 76.77     870.00
 76.87     923.00
 76.97     949.74
 77.07     957.95
 77.17    1080.00
 77.27    1026.05
 77.37    1017.00
 77.47    1075.59
 77.57    1080.00
 77.67    1099.00
 77.77     968.47
 77.87     904.00
 77.97     839.07
 78.07     779.07
 78.17     827.23
 78.27     721.00
 78.37     720.30
 78.47     745.00
 78.57     716.35
 78.67     708.00
 78.77     644.00
 78.87     636.12
 78.97     678.00
 79.07     613.00
 79.17     644.00
 79.27     675.00
 79.37     634.00
 79.47     604.00
 79.57     619.00
 79.67     706.00
 79.77     705.99
 79.87     695.35
 79.97     698.00
 80.07     655.00
 80.17     697.00
 80.27     640.00
 80.37     698.00
 80.47     734.00
 80.57     765.95
 80.67     795.66
 80.77     755.58
 80.87     864.00
 80.97     933.00
 81.07    1030.00
 81.17    1034.00
 81.27    1168.26
 81.37    1363.00
 81.47    1392.00
 81.57    1310.45
 81.67    1542.00
 81.77    1499.89
 81.87    1564.00
 81.97    1626.00
 82.07    1590.00
 82.17    1521.00
 82.27    1494.00
 82.37    1361.00
 82.47    1188.50
 82.57    1185.00
 82.67    1065.61
 82.77    1072.00
 82.87     948.00
 82.97     884.00
 83.07     902.63
 83.17     830.77
 83.27     766.00
 83.37     731.00
 83.47     758.25
 83.57     673.00
 83.67     766.42
 83.77     687.00
 83.87     742.19
 83.97     702.35
 84.07     648.00
 84.17     710.58
 84.27     681.00
 84.37     649.00
 84.47     686.00
 84.57     717.00
 84.67     741.60
 84.77     726.00
 84.87     673.00
 84.97     688.00
 85.07     647.00
 85.17     658.00
 85.27     700.00
 85.37     695.63
 85.47     655.00
 85.57     659.00
 85.67     617.00
 85.77     618.00
 85.87     639.00
 85.97     626.00
 86.07     663.00
 86.17     638.89
 86.27     660.00
 86.37     610.23
 86.47     643.00
 86.57     675.87
 86.67     669.00
 86.77     670.00
 86.87     655.00
 86.97     758.00
 87.07     683.00
 87.17     732.00
 87.27     730.11
 87.37     707.33
 87.47     694.89
 87.57     715.58
 87.67     694.00
 87.77     705.45
 87.87     722.00
 87.97     725.00
 88.07     766.00
 88.17     739.00
 88.27     780.00
 88.37     758.00
 88.47     769.39
 88.57     717.00
 88.67     732.00
 88.77     730.00
 88.87     676.90
 88.97     703.00
 89.07     659.00
 89.17     699.00
 89.27     672.00
 89.37     731.00
 89.47     698.00
 89.57     623.00
 89.67     644.86
 89.77     675.83
 89.87     690.00
 89.97     721.30
 90.07     741.00
 90.17     737.22
 90.27     744.00
 90.37     655.00
 90.47     660.00
 90.57     688.00
 90.67     644.00
 90.77     653.00
 90.87     691.70
 90.97     687.31
 91.07     616.00
 91.17     602.00
 91.27     692.57
 91.37     618.84
 91.47     607.00
 91.57     615.67
 91.67     636.49
 91.77     619.00
 91.87     639.00
 91.97     631.00
 92.07     596.00
 92.17     656.97
 92.27     599.00
 92.37     636.00
 92.47     592.00
 92.57     599.00
 92.67     583.56
 92.77     585.98
 92.87     691.00
 92.97     611.85
 93.07     639.00
 93.17     731.00
 93.27     655.00
 93.37     719.00
 93.47     710.00
 93.57     772.00
 93.67     779.00
 93.77     754.00
 93.87     791.00
 93.97     790.45
 94.07     852.58
 94.17     824.00
 94.27     880.00
 94.37     841.00
 94.47     890.15
 94.57     936.03
 94.67     959.00
 94.77     972.00
 94.87     948.00
 94.97    1047.00
 95.07     944.02
 95.17    1034.00
 95.27    1067.00
 95.37    1101.00
 95.47    1103.12
 95.57    1033.70
 95.67    1103.00
 95.77    1074.00
 95.87    1004.24
 95.97    1081.40
 96.07    1087.00
 96.17     993.00
 96.27    1035.77
 96.37    1006.82
 96.47     874.99
 96.57     912.00
 96.67     928.00
 96.77     868.14
 96.87     811.34
 96.97     776.12
 97.07     850.00
 97.17     894.00
 97.27     857.00
 97.37     910.52
 97.47    1006.00
 97.57     997.38
 97.67    1107.85
 97.77    1162.00
 97.87    1248.97
 97.97    1264.00
 98.07    1385.65
 98.17    1370.00
 98.27    1551.00
 98.37    1604.00
 98.47    1593.78
 98.57    1593.28
 98.67    1673.00
 98.77    1551.00
 98.87    1567.67
 98.97    1547.00
 99.07    1453.00
 99.17    1395.00
 99.27    1324.86
 99.37    1290.00
 99.47    1199.00
 99.57    1174.83
 99.67    1105.00
 99.77    1063.00
 99.87    1075.00
 99.97    1102.75
100.07    1073.05
100.17    1106.00
100.27    1056.00
100.37    1100.84
100.47    1229.00
100.57    1193.00
100.67    1370.00
100.77    1361.00
100.87    1483.49
100.97    1570.00
101.07    1638.64
101.17    1811.00
101.27    1881.00
101.37    2009.00
101.47    1918.56
101.57    2038.00
101.67    2082.00
101.77    2171.25
101.87    2200.00
101.97    2108.00
102.07    2143.00
102.17    2164.23
102.27    2057.38
102.37    1914.00
102.47    2027.00
102.57    1811.00
102.67    1838.33
102.77    1802.90
102.87    1631.00
102.97    1603.00
103.07    1592.02
103.17    1485.22
103.27    1476.00
103.37    1463.35
103.47    1403.39
103.57    1319.00
103.67    1301.00
103.77    1258.00
103.87    1223.22
103.97    1179.00
104.07    1131.00
104.17    1147.00
104.27    1087.48
104.37    1106.00
104.47    1002.00
104.57     953.83
104.67     870.97
104.77     871.00
104.87     861.00
104.97     827.55
105.07     775.00
105.17     806.19
105.27     785.00
105.37     654.38
105.47     657.54
105.57     726.00
105.67     645.00
105.77     680.97
105.87     601.43
105.97     680.00
106.07     679.29
106.17     656.00
106.27     674.00
106.37     643.00
106.47     675.00
106.57     586.54
106.67     661.00
106.77     610.00
106.87     627.00
106.97     617.42
107.07     670.00
107.17     702.00
107.27     699.00
107.37     742.71
107.47     661.34
107.57     710.00
107.67     762.00
107.77     728.00
107.87     738.00
107.97     733.00
108.07     798.00
108.17     815.00
108.27     771.46
108.37     785.00
108.47     824.06
108.57     832.00
108.67     779.00
108.77     768.00
108.87     862.00
108.97     848.00
109.07     869.25
109.17     744.00
109.27     813.00
109.37     761.00
109.47     819.00
109.57     794.31
109.67     822.13
109.77     799.00
109.87     781.99
109.97     768.00
110.07     831.17
110.17     804.00
110.27     787.00
110.37     745.00
110.47     816.40
110.57     776.00
110.67     764.00
110.77     827.00
110.87     766.00
110.97     785.00
111.07     699.79
111.17     744.00
111.27     677.34
111.37     718.00
111.47     758.00
111.57     725.39
111.67     691.96
111.77     682.00
111.87     659.04
111.97     618.37
112.07     667.00
112.17     662.00
112.27     647.00
112.37     684.22
112.47     639.64
112.57     608.00
112.67     613.53
112.77     612.31
112.87     627.98
112.97     660.00
113.07     652.00
113.17     595.65
113.27     606.69
113.37     632.00
113.47     663.91
113.57     668.00
113.67     697.84
113.77     643.00
113.87     617.83
113.97     647.00
114.07     643.00
114.17     648.58
114.27     695.46
114.37     653.04
114.47     713.00
114.57     680.34
114.67     740.00
114.77     793.25
114.87     782.00
114.97     834.97
115.07     826.66
115.17     855.00
115.27     880.02
115.37     961.74
115.47    1071.22
115.57    1088.00
115.67    1166.08
115.77    1364.93
115.87    1404.99
115.97    1628.00
116.07    1886.00
116.17    2064.00
116.27    2303.00
116.37    2503.09
116.47    2872.00
116.57    3065.00
116.67    3317.00
116.77    3825.00
116.87    4066.00
116.97    4575.00
117.07    4783.94
117.17    5263.00
117.27    5643.00
117.37    6023.00
117.47    6380.00
117.57    6876.00
117.67    6999.00
117.77    7380.00
117.87    7569.00
117.97    7635.00
118.07    7730.00
118.17    7723.00
118.27    7586.00
118.37    7427.00
118.47    7194.17
118.57    6776.00
118.67    6621.00
118.77    6390.22
118.87    5724.00
118.97    5537.00
119.07    5291.69
119.17    4837.81
119.27    4506.66
119.37    4234.00
119.47    3757.00
119.57    3419.91
119.67    3025.00
119.77    2739.00
119.87    2484.00
119.97    2280.00
120.07    2161.00
120.17    1838.17
120.27    1781.90
120.37    1561.78
120.47    1472.00
120.57    1376.00
120.67    1304.96
120.77    1120.83
120.87    1137.48
120.97     975.91
121.07     999.00
121.17     958.00
121.27     915.87
121.37     839.00
121.47     815.00
121.57     811.00
121.67     818.00
121.77     768.00
121.87     781.00
121.97     817.50
122.07     792.76
122.17     736.00
122.27     728.58
122.37     706.00
122.47     704.29
122.57     709.00
122.67     749.00
122.77     781.14
122.87     710.00
122.97     727.47
123.07     733.00
123.17     734.00
123.27     707.60
123.37     769.92
123.47     830.33
123.57     768.00
123.67     809.00
123.77     843.00
123.87     748.72
123.97     817.00
124.07     789.00
124.17     784.00
124.27     841.00
124.37     803.97
124.47     854.00
124.57     867.00
124.67     874.00
124.77     757.19
124.87     756.41
124.97     781.00
