  9.97     589.00
 10.07     648.00
 10.17     600.00
 10.27     604.54
 10.37     574.64
 10.47     597.00
 10.57     615.11
 10.67     578.00
 10.77     604.35
 10.87     619.26
 10.97     566.00
 11.07     592.00
 11.17     572.00
 11.27     546.38
 11.37     554.90
 11.47     556.99
 11.57     568.48
 11.67     588.00
 11.77     636.00
 11.87     671.00
 11.97     626.00
 12.07     632.00
 12.17     692.00
 12.27     689.00
 12.37     676.00
 12.47     618.00
 12.57     646.00
 12.67     571.27
 12.77     560.60
 12.87     560.55
 12.97     548.00
 13.07     612.98
 13.17     577.00
 13.27     522.00
 13.37     613.13
 13.47     538.00
 13.57     571.00
 13.67     584.00
 13.77     582.06
 13.87     533.84
 13.97     601.00
 14.07     593.37
 14.17     563.00
 14.27     567.00
 14.37     573.00
 14.47     528.05
 14.57     569.00
 14.67     556.00
 14.77     550.00
 14.87     571.00
 14.97     548.00
 15.07     579.00
 15.17     619.83
 15.27     618.00
 15.37     589.00
 15.47     613.93
 15.57     593.00
 15.67     538.00
 15.77     570.00
 15.87     533.50
 15.97     544.00
 16.07     575.00
 16.17     554.26
 16.27     587.00
 16.37     522.53
 16.47     597.75
 16.57     547.00
 16.67     582.21
 16.77     554.00
 16.87     526.00
 16.97     590.00
 17.07     548.00
 17.17     546.36
 17.27     524.61
 17.37     566.00
 17.47     561.00
 17.57     536.63
 17.67     583.85
 17.77     589.00
 17.87     556.87
 17.97     590.10
 18.07     544.00
 18.17     546.49
 18.27     552.00
 18.37     552.00
 18.47     585.82
 18.57     551.78
 18.67     581.00
 18.77     573.00
 18.87     541.00
 18.97     610.78
 19.07     568.00
 19.17     589.00
 19.27     574.00
 19.37     564.00
 19.47     528.00
 19.57     556.00
 19.67     535.34
 19.77     581.00
 19.87     540.00
 19.97     594.00
 20.07     528.84
 20.17     589.38
 20.27     552.00
 20.37     602.34
 20.47     566.00
 20.57     533.00
 20.67     552.00
 20.77     550.00
 20.87     561.19
 20.97     541.00
 21.07     564.00
 21.17     557.90
 21.27     529.00
 21.37     591.49
 21.47     575.56
 21.57     534.00
 21.67     504.00
 21.77     565.00
 21.87     552.00
 21.97     559.00
 22.07     554.00
 22.17     547.00
 22.27     543.00
 22.37     563.00
 22.47     561.43
 22.57     551.66
 22.67     544.00
 22.77     537.15
 22.87     553.00
 22.97     525.00
 23.07     567.09
 23.17     563.93
 23.27     548.00
 23.37     574.83
 23.47     508.00
 23.57     520.00
 23.67     515.38
 23.77     517.13
 23.87     569.00
 23.97     559.61
 24.07     544.25
 24.17     526.00
 24.27     579.35
 24.37     587.00
 24.47     602.00
 24.57     504.00
 24.67     577.00
 24.77     595.41
 24.87     616.00
 24.97     612.00
 25.07     590.00
 25.17     559.00
 25.27     513.00
 25.37     591.00
 25.47     513.00
 25.57     516.08
 25.67     526.00
 25.77     548.00
 25.87     521.00
 25.97     535.27
 26.07     518.86
 26.17     523.00
 26.27     569.00
 26.37     572.00
 26.47     562.00
 26.57     547.00
 26.67     567.68
 26.77     529.00
 26.87     586.00
 26.97     495.70
 27.07     539.00
 27.17     558.03
 27.27     579.00
 27.37     578.00
 27.47     494.00
 27.57     593.00
 27.67     549.00
 27.77     584.00
 27.87     562.66
 27.97     665.35
 28.07     708.21
 28.17     883.00
 28.27     899.10
 28.37     887.04
 28.47     861.00
 28.57     731.00
 28.67     700.00
 28.77     761.00
 28.87     786.15
 28.97     897.00
 29.07     798.00
 29.17     735.00
 29.27     667.00
 29.37     626.49
 29.47     612.00
 29.57     640.00
 29.67     591.00
 29.77     572.42
 29.87     592.00
 29.97     584.00
 30.07     569.00
 30.17     609.00
 30.27     595.00
 30.37     569.00
 30.47     557.00
 30.57     517.31
 30.67     597.83
 30.77     577.00
 30.87     587.00
 30.97     626.00
 31.07     593.00
 31.17     565.00
 31.27     529.19
 31.37     550.00
 31.47     530.00
 31.57     507.51
 31.67     499.21
 31.77     516.05
 31.87     515.04
 31.97     545.49
 32.07     553.00
 32.17     541.00
 32.27     520.28
 32.37     534.00
 32.47     524.00
 32.57     511.00
 32.67     563.00
 32.77     529.00
 32.87     506.14
 32.97     501.22
 33.07     531.00
 33.17     563.23
 33.27     535.00
 33.37     575.00
 33.47     604.00
 33.57     559.79
 33.67     622.00
 33.77     748.00
 33.87     874.00
 33.97    1054.00
 34.07    1015.88
 34.17    1009.00
 34.27     904.09
 34.37     774.00
 34.47     670.58
 34.57     599.00
 34.67     555.05
 34.77     500.46
 34.87     527.50
 34.97     565.35
 35.07     553.00
 35.17     526.41
 35.27     472.00
 35.37     510.00
 35.47     542.05
 35.57     527.96
 35.67     508.00
 35.77     484.00
 35.87     540.80
 35.97     478.21
 36.07     499.19
 36.17     508.00
 36.27     545.00
 36.37     541.52
 36.47     522.00
 36.57     510.00
 36.67     506.00
 36.77     478.95
 36.87     560.00
 36.97     484.63
 37.07     479.00
 37.17     471.00
 37.27     539.00
 37.37     533.00
 37.47     488.00
 37.57     503.99
 37.67     491.27
 37.77     545.35
 37.87     540.00
 37.97     530.00
 38.07     509.29
 38.17     501.49
 38.27     512.00
 38.37     511.00
 38.47     514.00
 38.57     488.83
 38.67     494.00
 38.77     468.00
 38.87     497.00
 38.97     563.00
 39.07     459.00
 39.17     511.76
 39.27     514.00
 39.37     491.00
 39.47     546.00
 39.57     485.57
 39.67     479.00
 39.77     493.00
 39.87     502.00
 39.97     499.09
 40.07     477.00
 40.17     484.00
 40.27     521.79
 40.37     495.00
 40.47     489.73
 40.57     501.00
 40.67     524.48
 40.77     529.00
 40.87     530.00
 40.97     481.02
 41.07     499.00
 41.17     498.00
 41.27     478.13
 41.37     542.48
 41.47     488.00
 41.57     530.00
 41.67     490.00
 41.77     509.79
 41.87     487.00
 41.97     503.00
 42.07     483.74
 42.17     518.00
 42.27     501.00
 42.37     600.00
 42.47     543.00
 42.57     633.89
 42.67     595.00
 42.77     653.83
 42.87     566.00
 42.97     558.00
 43.07     541.00
 43.17     508.00
 43.27     525.00
 43.37     512.00
 43.47     477.73
 43.57     535.89
 43.67     512.00
 43.77     494.00
 43.87     536.54
 43.97     538.03
 44.07     500.00
 44.17     491.42
 44.27     480.40
 44.37     542.91
 44.47     455.00
 44.57     523.00
 44.67     488.00
 44.77     477.00
 44.87     516.43
 44.97     474.00
 45.07     481.00
 45.17     530.84
 45.27     506.00
 45.37     549.00
 45.47     499.00
 45.57     517.00
 45.67     481.00
 45.77     481.00
 45.87     455.33
 45.97     497.00
 46.07     495.00
 46.17     504.20
 46.27     454.00
 46.37     474.00
 46.47     461.53
 46.57     482.00
 46.67     500.00
 46.77     479.76
 46.87     513.00
 46.97     496.00
 47.07     486.00
 47.17     474.07
 47.27     553.00
 47.37     472.00
 47.47     549.36
 47.57     533.10
 47.67     567.34
 47.77     611.00
 47.87     558.25
 47.97     648.00
 48.07     576.00
 48.17     534.70
 48.27     567.00
 48.37     545.00
 48.47     491.79
 48.57     494.39
 48.67     518.00
 48.77     515.20
 48.87     540.00
 48.97     530.00
 49.07     527.09
 49.17     554.00
 49.27     638.00
 49.37     656.00
 49.47     670.00
 49.57     808.47
 49.67     908.07
 49.77    1067.00
 49.87    1357.00
 49.97    1773.00
 50.07    2214.25
 50.17    2393.00
 50.27    2535.00
 50.37    2400.00
 50.47    1998.00
 50.57    1567.00
 50.67    1164.00
 50.77     879.00
 50.87     709.25
 50.97     640.24
 51.07     602.23
 51.17     610.00
 51.27     625.87
 51.37     590.00
 51.47     568.00
 51.57     545.42
 51.67     505.77
 51.77     552.00
 51.87     525.00
 51.97     547.00
 52.07     561.00
 52.17     583.00
 52.27     538.00
 52.37     543.00
 52.47     549.00
 52.57     493.06
 52.67     527.50
 52.77     566.31
 52.87     635.00
 52.97     677.00
 53.07     694.88
 53.17     866.07
 53.27    1037.00
 53.37    1029.16
 53.47    1148.00
 53.57    1184.00
 53.67    1124.00
 53.77    1069.00
 53.87     898.00
 53.97     824.00
 54.07     729.00
 54.17     668.00
 54.27     625.00
 54.37     597.00
 54.47     565.00
 54.57     558.45
 54.67     554.00
 54.77     540.00
 54.87     510.50
 54.97     542.00
 55.07     556.00
 55.17     565.00
 55.27     580.40
 55.37     501.24
 55.47     555.00
 55.57     569.71
 55.67     539.00
 55.77     598.00
 55.87     620.20
 55.97     647.00
 56.07     692.27
 56.17     698.00
 56.27     846.00
 56.37    1043.00
 56.47    1231.00
 56.57    1560.00
 56.67    2064.14
 56.77    2320.48
 56.87    2585.00
 56.97    2609.00
 57.07    2544.00
 57.17    2176.00
 57.27    1842.00
 57.37    1443.81
 57.47    1192.00
 57.57     939.00
 57.67     819.14
 57.77     745.00
 57.87     669.00
 57.97     687.00
 58.07     662.00
 58.17     665.52
 58.27     722.00
 58.37     787.00
 58.47     955.00
 58.57    1081.00
 58.67    1213.00
 58.77    1339.00
 58.87    1488.00
 58.97    1598.96
 59.07    1721.00
 59.17    1616.09
 59.27    1449.45
 59.37    1481.66
 59.47    1284.00
 59.57    1166.00
 59.67    1130.00
 59.77    1125.00
 59.87    1142.00
 59.97    1263.00
 60.07    1463.00
 60.17    1494.00
 60.27    1620.48
 60.37    1573.00
 60.47    1493.88
 60.57    1309.74
 60.67    1190.00
 60.77     970.72
 60.87     822.00
 60.97     728.78
 61.07     694.29
 61.17     640.00
 61.27     616.41
 61.37     635.00
 61.47     632.00
 61.57     693.26
 61.67     852.00
 61.77     868.88
 61.87    1027.00
 61.97    1159.00
 62.07    1315.45
 62.17    1325.00
 62.27    1464.74
 62.37    1363.00
 62.47    1201.77
 62.57    1110.00
 62.67     961.23
 62.77     862.42
 62.87     744.00
 62.97     698.00
 63.07     631.00
 63.17     614.00
 63.27     523.27
 63.37     554.63
 63.47     557.00
 63.57     587.00
 63.67     570.00
 63.77     601.00
 63.87     603.11
 63.97     632.00
 64.07     712.00
 64.17     731.00
 64.27     751.02
 64.37     882.51
 64.47     986.00
 64.57    1039.29
 64.67    1013.00
 64.77    1021.00
 64.87    1012.00
 64.97     959.00
 65.07     861.00
 65.17     846.00
 65.27     713.58
 65.37     674.00
 65.47     694.93
 65.57     607.00
 65.67     582.00
 65.77     604.13
 65.87     609.77
 65.97     554.00
 66.07     574.00
 66.17     545.00
 66.27     570.00
 66.37     486.00
 66.47     530.00
 66.57     563.00
 66.67     570.00
 66.77     572.42
 66.87     588.00
 66.97     638.83
 67.07     630.80
 67.17     606.52
 67.27     741.00
 67.37     821.00
 67.47     912.00
 67.57    1166.66
 67.67    1378.00
 67.77    1626.00
 67.87    1867.00
 67.97    2176.00
 68.07    2356.00
 68.17    2394.00
 68.27    2239.00
 68.37    2093.00
 68.47    1989.00
 68.57    1623.82
 68.67    1402.99
 68.77    1110.19
 68.87     911.75
 68.97     849.00
 69.07     719.94
 69.17     671.85
 69.27     662.69
 69.37     626.00
 69.47     593.00
 69.57     609.00
 69.67     576.00
 69.77     578.64
 69.87     586.41
 69.97     564.00
 70.07     594.82
 70.17     542.74
 70.27     506.00
 70.37     548.53
 70.47     566.23
 70.57     574.00
 70.67     588.00
 70.77     534.00
 70.87     605.00
 70.97     564.00
 71.07     683.74
 71.17     661.00
 71.27     760.00
 71.37     837.54
 71.47     985.00
 71.57    1190.28
 71.67    1262.88
 71.77    1446.00
 71.87    1693.99
 71.97    1848.00
 72.07    1818.00
 72.17    1928.00
 72.27    1812.00
 72.37    1782.00
 72.47    1628.00
 72.57    1407.00
 72.67    1388.00
 72.77    1236.86
 72.87    1039.00
 72.97     996.00
 73.07     882.45
 73.17     800.00
 73.27     750.00
 73.37     707.00
 73.47     708.32
 73.57     616.00
 73.67     654.00
 73.77     565.00
 73.87     572.00
 73.97     645.00
 74.07     528.08
 74.17     579.00
 74.27     613.00
 74.37     551.31
 74.47     581.00
 74.57     573.89
 74.67     614.48
 74.77     602.04
 74.87     658.00
 74.97     635.00
 75.07     572.00
 75.17     569.97
 75.27     573.00
 75.37     584.97
 75.47     588.00
 75.57     579.83
 75.67     556.00
 75.77     574.85
 75.87     584.00
 75.97     589.00
 76.07     599.00
 76.17     599.50
 76.27     649.00
 76.37     685.05
 76.47     740.00
 76.57     669.33
 76.67     690.00
 76.77     671.00
 76.87     688.00
 76.97     648.51
 77.07     615.00
 77.17     606.00
 77.27     564.54
 77.37     567.00
 77.47     537.00
 77.57     562.00
 77.67     522.00
 77.77     544.01
 77.87     499.04
 77.97     509.00
 78.07     569.29
 78.17     483.63
 78.27     522.17
 78.37     504.85
 78.47     547.00
 78.57     535.21
 78.67     514.16
 78.77     508.06
 78.87     540.00
 78.97     524.00
 79.07     557.91
 79.17     525.00
 79.27     559.41
 79.37     534.00
 79.47     541.00
 79.57     541.00
 79.67     550.00
 79.77     544.38
 79.87     488.00
 79.97     562.03
 80.07     516.93
 80.17     565.00
 80.27     550.73
 80.37     575.00
 80.47     572.25
 80.57     543.00
 80.67     624.93
 80.77     631.43
 80.87     704.11
 80.97     676.00
 81.07     676.00
 81.17     699.49
 81.27     725.93
 81.37     700.00
 81.47     741.00
 81.57     711.00
 81.67     684.58
 81.77     717.00
 81.87     747.00
 81.97     699.62
 82.07     676.00
 82.17     669.00
 82.27     670.00
 82.37     614.87
 82.47     580.00
 82.57     595.00
 82.67     539.96
 82.77     548.00
 82.87     519.48
 82.97     534.00
 83.07     574.57
 83.17     531.00
 83.27     564.00
 83.37     547.00
 83.47     545.00
 83.57     527.00
 83.67     519.00
 83.77     597.00
 83.87     543.00
 83.97     611.01
 84.07     561.00
 84.17     557.00
 84.27     605.09
 84.37     539.00
 84.47     565.00
 84.57     565.00
 84.67     554.82
 84.77     559.23
 84.87     552.00
 84.97     533.00
 85.07     571.31
 85.17     530.00
 85.27     508.00
 85.37     502.00
 85.47     536.76
 85.57     493.00
 85.67     522.00
 85.77     510.68
 85.87     491.00
 85.97     546.00
 86.07     507.60
 86.17     507.00
 86.27     573.00
 86.37     553.17
 86.47     518.22
 86.57     536.00
 86.67     528.00
 86.77     589.00
 86.87     598.00
 86.97     597.00
 87.07     618.75
 87.17     629.00
 87.27     626.00
 87.37     633.73
 87.47     580.65
 87.57     611.89
 87.67     648.00
 87.77     634.16
 87.87     598.02
 87.97     591.00
 88.07     629.00
 88.17     562.00
 88.27     584.91
 88.37     615.35
 88.47     549.00
 88.57     576.00
 88.67     548.87
 88.77     606.05
 88.87     558.08
 88.97     613.21
 89.07     604.00
 89.17     648.00
 89.27     631.00
 89.37     597.30
 89.47     588.00
 89.57     549.05
 89.67     559.00
 89.77     632.00
 89.87     590.00
 89.97     586.91
 90.07     569.00
 90.17     561.00
 90.27     522.00
 90.37     505.00
 90.47     540.50
 90.57     509.00
 90.67     501.00
 90.77     556.00
 90.87     545.79
 90.97     532.00
 91.07     518.20
 91.17     486.03
 91.27     496.38
 91.37     527.00
 91.47     506.00
 91.57     559.04
 91.67     556.70
 91.77     564.56
 91.87     523.00
 91.97     561.00
 92.07     537.83
 92.17     560.92
 92.27     573.00
 92.37     529.00
 92.47     616.00
 92.57     583.17
 92.67     655.00
 92.77     594.00
 92.87     674.98
 92.97     676.06
 93.07     689.47
 93.17     755.16
 93.27     793.00
 93.37     816.00
 93.47     812.95
 93.57     773.44
 93.67     804.19
 93.77     793.42
 93.87     852.98
 93.97     841.87
 94.07     864.27
 94.17     845.00
 94.27     836.00
 94.37     862.00
 94.47     902.00
 94.57     866.00
 94.67     881.53
 94.77     912.29
 94.87     935.00
 94.97     864.81
 95.07     923.00
 95.17     912.00
 95.27     876.28
 95.37     803.00
 95.47     771.28
 95.57     748.00
 95.67     714.00
 95.77     725.00
 95.87     733.08
 95.97     657.00
 96.07     694.10
 96.17     698.00
 96.27     645.14
 96.37     691.00
 96.47     800.34
 96.57     815.66
 96.67     830.00
 96.77     865.39
 96.87     985.00
 96.97     995.35
 97.07    1178.04
 97.17    1276.00
 97.27    1280.61
 97.37    1256.00
 97.47    1357.00
 97.57    1385.15
 97.67    1420.00
 97.77    1366.31
 97.87    1380.00
 97.97    1342.00
 98.07    1238.00
 98.17    1241.81
 98.27    1134.00
 98.37    1113.00
 98.47    1009.00
 98.57     925.00
 98.67     927.06
 98.77     864.78
 98.87     833.03
 98.97     775.00
 99.07     802.00
 99.17     765.99
 99.27     833.00
 99.37     837.90
 99.47     913.00
 99.57    1038.00
 99.67    1143.00
 99.77    1138.00
 99.87    1303.09
 99.97    1401.00
100.07    1482.00
100.17    1696.00
100.27    1786.00
100.37    1820.94
100.47    2020.00
100.57    1974.81
100.67    2152.00
100.77    2128.00
100.87    2193.00
100.97    2118.00
101.07    2050.00
101.17    2051.00
101.27    1855.00
101.37    1789.00
101.47    1702.00
101.57    1606.00
101.67    1537.40
101.77    1477.00
101.87    1336.00
101.97    1329.00
102.07    1336.40
102.17    1200.00
102.27    1213.28
102.37    1142.00
102.47    1051.00
102.57    1123.00
102.67    1056.00
102.77     989.00
102.87    1023.00
102.97    1041.27
103.07     897.00
103.17     872.00
103.27     860.00
103.37     803.00
103.47     854.19
103.57     803.00
103.67     753.00
103.77     709.00
103.87     657.00
103.97     622.00
104.07     574.30
104.17     612.00
104.27     541.90
104.37     607.00
104.47     540.00
104.57     552.00
104.67     544.99
104.77     534.00
104.87     488.36
104.97     498.23
105.07     524.00
105.17     548.97
105.27     556.00
105.37     559.00
105.47     504.00
105.57     509.56
105.67     584.00
105.77     540.00
105.87     581.00
105.97     579.14
106.07     561.65
106.17     521.09
106.27     622.57
106.37     575.60
106.47     571.00
106.57     631.00
106.67     575.00
106.77     616.66
106.87     657.37
106.97     585.00
107.07     632.76
107.17     629.00
107.27     678.40
107.37     696.00
107.47     668.00
107.57     748.72
107.67     704.48
107.77     641.00
107.87     676.22
107.97     665.00
108.07     675.00
108.17     711.86
108.27     680.25
108.37     653.00
108.47     686.61
108.57     650.00
108.67     685.23
108.77     655.00
108.87     678.00
108.97     673.00
109.07     684.00
109.17     700.00
109.27     657.36
109.37     667.47
109.47     615.87
109.57     680.44
109.67     658.51
109.77     678.00
109.87     592.00
109.97     600.00
110.07     608.00
110.17     567.00
110.27     601.49
110.37     522.99
110.47     555.60
110.57     572.00
110.67     541.00
110.77     546.00
110.87     592.00
110.97     499.47
111.07     568.00
111.17     573.00
111.27     481.69
111.37     519.00
111.47     541.00
111.57     590.00
111.67     569.15
111.77     527.68
111.87     564.03
111.97     542.28
112.07     576.00
112.17     534.00
112.27     518.76
112.37     595.00
112.47     532.00
112.57     572.00
112.67     601.78
112.77     647.05
112.87     580.24
112.97     628.00
113.07     678.00
113.17     705.97
113.27     669.95
113.37     680.27
113.47     810.25
113.57     827.10
113.67     825.00
113.77     906.00
113.87     955.97
113.97     965.00
114.07    1045.00
114.17    1054.83
114.27    1082.83
114.37    1182.00
114.47    1203.00
114.57    1316.69
114.67    1443.95
114.77    1625.00
114.87    1779.39
114.97    2004.00
115.07    2160.00
115.17    2385.00
115.27    2524.63
115.37    2871.00
115.47    3128.00
115.57    3410.00
115.67    3723.00
115.77    4162.00
115.87    4561.00
115.97    4921.00
116.07    5304.00
116.17    5568.00
116.27    6240.55
116.37    6444.00
116.47    6632.00
116.57    6951.01
116.67    7089.00
116.77    7230.00
116.87    7276.00
116.97    6837.87
117.07    6875.00
117.17    6676.00
117.27    6203.19
117.37    5988.00
117.47    5313.00
117.57    5031.00
117.67    4825.48
117.77    4501.00
117.87    4088.00
117.97    3512.90
118.07    3261.75
118.17    3057.00
118.27    2652.41
118.37    2216.70
118.47    2065.00
118.57    1802.00
118.67    1653.98
118.77    1357.74
118.87    1298.29
118.97    1068.00
119.07    1046.00
119.17     966.00
119.27     870.00
119.37     843.00
119.47     743.00
119.57     746.00
119.67     679.00
119.77     712.98
119.87     658.00
119.97     591.68
120.07     576.00
120.17     596.00
120.27     638.77
120.37     622.21
120.47     566.08
120.57     541.48
120.67     526.00
120.77     537.00
120.87     543.00
120.97     549.01
121.07     565.00
121.17     555.00
121.27     522.56
121.37     579.38
121.47     538.00
121.57     551.00
121.67     575.00
121.77     550.43
121.87     585.00
121.97     569.00
122.07     634.81
122.17     546.83
122.27     572.88
122.37     640.00
122.47     596.00
122.57     665.00
122.67     673.00
122.77     596.00
122.87     596.00
122.97     619.00
123.07     712.00
123.17     622.62
123.27     658.00
123.37     639.62
123.47     633.00
123.57     597.00
123.67     594.00
123.77     641.00
123.87     647.60
123.97     588.00
124.07     600.00
124.17     592.91
124.27     643.86
124.37     601.00
124.47     636.00
124.57     583.00
124.67     565.00
124.77     560.09
124.87     604.55
124.97     592.00
