  9.97     621.00
 10.07     643.00
 10.17     633.00
 10.27     629.00
 10.37     556.78
 10.47     592.71
 10.57     583.00
 10.67     523.88
 10.77     653.00
 10.87     595.79
 10.97     579.22
 11.07     617.44
 11.17     625.00
 11.27     584.00
 11.37     617.00
 11.47     619.00
 11.57     596.50
 11.67     618.00
 11.77     549.43
 11.87     666.00
 11.97     666.00
 12.07     646.50
 12.17     681.00
 12.27     717.00
 12.37     639.00
 12.47     607.00
 12.57     622.21
 12.67     613.00
 12.77     609.49
 12.87     564.00
 12.97     509.00
 13.07     555.00
 13.17     619.00
 13.27     567.00
 13.37     550.00
 13.47     576.00
 13.57     561.00
 13.67     623.28
 13.77     581.50
 13.87     575.00
 13.97     615.53
 14.07     610.78
 14.17     562.00
 14.27     571.00
 14.37     534.00
 14.47     583.00
 14.57     578.00
 14.67     565.60
 14.77     584.00
 14.87     574.00
 14.97     578.00
 15.07     569.00
 15.17     554.10
 15.27     566.00
 15.37     573.00
 15.47     559.00
 15.57     607.79
 15.67     565.71
 15.77     531.00
 15.87     587.85
 15.97     612.51
 16.07     521.00
 16.17     558.00
 16.27     607.43
 16.37     560.15
 16.47     596.00
 16.57     538.00
 16.67     554.00
 16.77     572.00
 16.87     562.04
 16.97     561.00
 17.07     621.05
 17.17     631.00
 17.27     563.00
 17.37     595.00
 17.47     583.00
 17.57     577.00
 17.67     567.00
 17.77     591.00
 17.87     572.00
 17.97     553.00
 18.07     625.83
 18.17     582.00
 18.27     570.00
 18.37     538.00
 18.47     585.00
 18.57     637.00
 18.67     509.00
 18.77     550.52
 18.87     539.00
 18.97     536.00
 19.07     627.49
 19.17     559.00
 19.27     577.66
 19.37     546.00
 19.47     633.74
 19.57     569.00
 19.67     532.00
 19.77     567.00
 19.87     613.32
 19.97     609.00
 20.07     565.00
 20.17     518.00
 20.27     594.89
 20.37     536.34
 20.47     596.00
 20.57     596.00
 20.67     565.00
 20.77     555.00
 20.87     545.98
 20.97     551.00
 21.07     593.25
 21.17     571.00
 21.27     585.00
 21.37     587.00
 21.47     545.18
 21.57     582.00
 21.67     634.00
 21.77     568.00
 21.87     560.00
 21.97     621.11
 22.07     617.00
 22.17     593.00
 22.27     613.93
 22.37     542.00
 22.47     592.25
 22.57     629.00
 22.67     564.00
 22.77     532.00
 22.87     577.00
 22.97     598.20
 23.07     586.00
 23.17     611.96
 23.27     573.00
 23.37     561.00
 23.47     569.00
 23.57     575.00
 23.67     584.00
 23.77     591.00
 23.87     566.00
 23.97     550.00
 24.07     581.42
 24.17     635.00
 24.27     595.00
 24.37     607.00
 24.47     622.00
 24.57     658.00
 24.67     645.00
 24.77     638.00
 24.87     714.00
 24.97     662.00
 25.07     597.40
 25.17     680.00
 25.27     595.00
 25.37     585.00
 25.47     580.36
 25.57     595.00
 25.67     617.00
 25.77     546.76
 25.87     561.11
 25.97     574.00
 26.07     629.00
 26.17     626.00
 26.27     594.26
 26.37     525.99
 26.47     608.00
 26.57     580.00
 26.67     599.00
 26.77     548.04
 26.87     528.41
 26.97     620.00
 27.07     624.00
 27.17     598.00
 27.27     549.23
 27.37     656.00
 27.47     532.12
 27.57     654.00
 27.67     587.74
 27.77     613.00
 27.87     647.92
 27.97     663.42
 28.07     716.00
 28.17     835.90
 28.27     947.00
 28.37     937.23
 28.47     936.00
 28.57     843.00
 28.67     751.00
 28.77     804.00
 28.87     778.00
 28.97     796.72
 29.07     782.52
 29.17     834.00
 29.27     766.84
 29.37     657.60
 29.47     645.00
 29.57     588.00
 29.67     603.00
 29.77     631.00
 29.87     645.00
 29.97     649.00
 30.07     661.00
 30.17     523.17
 30.27     622.00
 30.37     580.00
 30.47     601.00
 30.57     576.00
 30.67     524.81
 30.77     603.83
 30.87     651.00
 30.97     660.00
 31.07     624.06
 31.17     609.36
 31.27     616.66
 31.37     633.00
 31.47     546.96
 31.57     611.96
 31.67     519.77
 31.77     606.00
 31.87     592.00
 31.97     577.14
 32.07     516.77
 32.17     544.00
 32.27     575.00
 32.37     592.00
 32.47     594.00
 32.57     606.00
 32.67     582.00
 32.77     569.00
 32.87     504.79
 32.97     555.58
 33.07     618.00
 33.17     543.52
 33.27     585.48
 33.37     532.72
 33.47     542.46
 33.57     593.65
 33.67     682.00
 33.77     676.00
 33.87     727.00
 33.97     833.00
 34.07     932.19
 34.17     964.76
 34.27     954.00
 34.37     959.19
 34.47     748.00
 34.57     759.22
 34.67     658.00
 34.77     590.00
 34.87     590.77
 34.97     566.00
 35.07     562.00
 35.17     571.00
 35.27     541.00
 35.37     531.00
 35.47     528.76
 35.57     522.41
 35.67     559.27
 35.77     515.00
 35.87     544.89
 35.97     489.00
 36.07     484.48
 36.17     479.00
 36.27     513.00
 36.37     496.08
 36.47     513.81
 36.57     507.00
 36.67     507.52
 36.77     525.05
 36.87     558.22
 36.97     566.83
 37.07     548.00
 37.17     503.00
 37.27     491.38
 37.37     525.00
 37.47     545.00
 37.57     518.46
 37.67     514.00
 37.77     553.25
 37.87     459.00
 37.97     526.00
 38.07     518.62
 38.17     514.00
 38.27     505.00
 38.37     522.00
 38.47     455.00
 38.57     494.00
 38.67     472.40
 38.77     493.00
 38.87     489.00
 38.97     541.12
 39.07     504.22
 39.17     482.00
 39.27     489.00
 39.37     489.00
 39.47     527.39
 39.57     519.00
 39.67     471.00
 39.77     496.00
 39.87     497.00
 39.97     489.00
 40.07     504.00
 40.17     516.00
 40.27     480.00
 40.37     510.00
 40.47     544.00
 40.57     477.00
 40.67     498.00
 40.77     531.00
 40.87     531.36
 40.97     471.87
 41.07     479.00
 41.17     486.00
 41.27     558.37
 41.37     513.00
 41.47     495.11
 41.57     476.50
 41.67     520.00
 41.77     480.00
 41.87     556.00
 41.97     518.00
 42.07     481.00
 42.17     518.00
 42.27     469.00
 42.37     545.00
 42.47     571.16
 42.57     615.45
 42.67     564.00
 42.77     591.00
 42.87     566.00
 42.97     660.92
 43.07     590.57
 43.17     550.00
 43.27     529.70
 43.37     555.00
 43.47     557.00
 43.57     491.00
 43.67     550.22
 43.77     543.79
 43.87     483.00
 43.97     487.00
 44.07     550.01
 44.17     544.65
 44.27     495.00
 44.37     461.00
 44.47     549.83
 44.57     489.00
 44.67     507.00
 44.77     494.00
 44.87     502.00
 44.97     525.00
 45.07     513.72
 45.17     535.00
 45.27     490.00
 45.37     517.00
 45.47     537.00
 45.57     460.44
 45.67     459.61
 45.77     515.92
 45.87     496.00
 45.97     568.00
 46.07     503.57
 46.17     530.00
 46.27     479.00
 46.37     513.00
 46.47     481.95
 46.57     506.00
 46.67     482.56
 46.77     526.00
 46.87     495.00
 46.97     486.00
 47.07     462.52
 47.17     485.00
 47.27     537.00
 47.37     497.00
 47.47     515.80
 47.57     530.00
 47.67     524.00
 47.77     601.84
 47.87     567.00
 47.97     599.00
 48.07     535.84
 48.17     645.00
 48.27     545.00
 48.37     518.27
 48.47     508.21
 48.57     553.00
 48.67     554.51
 48.77     579.39
 48.87     544.00
 48.97     514.66
 49.07     509.00
 49.17     507.00
 49.27     613.15
 49.37     553.18
 49.47     554.19
 49.57     630.00
 49.67     701.00
 49.77     895.16
 49.87    1090.94
 49.97    1293.29
 50.07    1552.51
 50.17    1956.00
 50.27    2221.66
 50.37    2381.00
 50.47    2296.00
 50.57    1941.96
 50.67    1602.78
 50.77    1263.00
 50.87     987.00
 50.97     825.00
 51.07     775.37
 51.17     665.00
 51.27     661.00
 51.37     665.09
 51.47     664.74
 51.57     627.90
 51.67     546.94
 51.77     544.00
 51.87     573.00
 51.97     571.00
 52.07     596.00
 52.17     576.00
 52.27     562.83
 52.37     550.87
 52.47     572.00
 52.57     577.00
 52.67     596.00
 52.77     561.89
 52.87     616.07
 52.97     643.00
 53.07     668.30
 53.17     744.34
 53.27     792.00
 53.37     913.00
 53.47    1048.00
 53.57    1170.00
 53.67    1242.00
 53.77    1214.00
 53.87    1089.93
 53.97    1033.00
 54.07     951.00
 54.17     833.00
 54.27     755.00
 54.37     676.00
 54.47     596.00
 54.57     602.00
 54.67     574.00
 54.77     539.00
 54.87     564.22
 54.97     580.00
 55.07     558.76
 55.17     562.33
 55.27     616.00
 55.37     549.00
 55.47     516.62
 55.57     602.30
 55.67     575.16
 55.77     615.82
 55.87     590.00
 55.97     604.65
 56.07     616.46
 56.17     686.34
 56.27     778.00
 56.37     974.74
 56.47     988.00
 56.57    1248.00
 56.67    1473.00
 56.77    1805.00
 56.87    2207.00
 56.97    2373.38
 57.07    2464.48
 57.17    2482.00
 57.27    2235.00
 57.37    1979.00
 57.47    1678.00
 57.57    1275.00
 57.67    1147.00
 57.77     897.00
 57.87     884.18
 57.97     787.00
 58.07     713.91
 58.17     684.32
 58.27     716.00
 58.37     761.00
 58.47     811.00
 58.57     815.00
 58.67     847.90
 58.77     966.00
 58.87    1058.00
 58.97    1138.00
 59.07    1087.22
 59.17    1272.00
 59.27    1155.32
 59.37    1289.00
 59.47    1232.00
 59.57    1133.01
 59.67    1131.00
 59.77    1053.17
 59.87    1192.22
 59.97    1276.00
 60.07    1364.00
 60.17    1302.28
 60.27    1501.00
 60.37    1526.65
 60.47    1584.00
 60.57    1491.21
 60.67    1443.78
 60.77    1166.67
 60.87    1154.00
 60.97     929.00
 61.07     860.84
 61.17     801.00
 61.27     791.00
 61.37     681.00
 61.47     728.23
 61.57     759.98
 61.67     689.00
 61.77     812.13
 61.87     856.00
 61.97     970.00
 62.07    1136.71
 62.17    1186.65
 62.27    1307.13
 62.37    1328.01
 62.47    1320.87
 62.57    1264.13
 62.67    1198.00
 62.77    1043.00
 62.87     862.00
 62.97     782.00
 63.07     807.46
 63.17     637.00
 63.27     650.22
 63.37     597.53
 63.47     616.00
 63.57     631.00
 63.67     539.63
 63.77     626.00
 63.87     631.00
 63.97     587.34
 64.07     671.00
 64.17     695.00
 64.27     761.00
 64.37     745.77
 64.47     784.01
 64.57     932.36
 64.67     937.00
 64.77    1053.84
 64.87    1060.41
 64.97     979.00
 65.07     960.29
 65.17     943.08
 65.27     838.27
 65.37     810.44
 65.47     728.00
 65.57     694.00
 65.67     656.00
 65.77     673.00
 65.87     611.00
 65.97     672.00
 66.07     595.00
 66.17     583.00
 66.27     583.00
 66.37     558.00
 66.47     528.00
 66.57     555.00
 66.67     534.00
 66.77     569.00
 66.87     615.62
 66.97     599.00
 67.07     641.00
 67.17     619.00
 67.27     654.00
 67.37     725.00
 67.47     806.00
 67.57     911.00
 67.67    1043.00
 67.77    1256.78
 67.87    1473.00
 67.97    1737.00
 68.07    2067.00
 68.17    2211.85
 68.27    2384.04
 68.37    2305.00
 68.47    2368.54
 68.57    2172.00
 68.67    1924.00
 68.77    1695.00
 68.87    1455.37
 68.97    1235.00
 69.07     986.05
 69.17     871.00
 69.27     812.00
 69.37     687.00
 69.47     721.00
 69.57     691.00
 69.67     587.75
 69.77     611.00
 69.87     639.00
 69.97     577.00
 70.07     611.00
 70.17     625.02
 70.27     597.00
 70.37     578.00
 70.47     532.05
 70.57     611.00
 70.67     556.31
 70.77     582.29
 70.87     644.00
 70.97     567.27
 71.07     653.00
 71.17     638.80
 71.27     739.00
 71.37     761.00
 71.47     821.00
 71.57    1011.30
 71.67    1021.00
 71.77    1147.00
 71.87    1346.00
 71.97    1555.00
 72.07    1657.57
 72.17    1767.97
 72.27    1888.00
 72.37    1859.00
 72.47    1767.00
 72.57    1753.00
 72.67    1574.00
 72.77    1262.04
 72.87    1084.26
 72.97    1006.94
 73.07     976.00
 73.17     859.00
 73.27     713.27
 73.37     749.00
 73.47     649.65
 73.57     655.00
 73.67     677.00
 73.77     604.00
 73.87     534.82
 73.97     573.00
 74.07     632.00
 74.17     572.00
 74.27     600.90
 74.37     595.00
 74.47     570.00
 74.57     564.00
 74.67     597.00
 74.77     624.00
 74.87     580.03
 74.97     620.00
 75.07     631.00
 75.17     619.00
 75.27     657.00
 75.37     627.00
 75.47     602.00
 75.57     552.92
 75.67     519.00
 75.77     558.00
 75.87     602.41
 75.97     538.67
 76.07     597.00
 76.17     621.00
 76.27     602.34
 76.37     607.42
 76.47     648.00
 76.57     621.00
 76.67     722.93
 76.77     714.00
 76.87     705.10
 76.97     634.17
 77.07     637.77
 77.17     691.00
 77.27     614.00
 77.37     650.15
 77.47     560.00
 77.57     571.00
 77.67     577.00
 77.77     566.00
 77.87     500.70
 77.97     544.00
 78.07     486.00
 78.17     535.00
 78.27     539.00
 78.37     546.68
 78.47     540.00
 78.57     533.12
 78.67     470.00
 78.77     544.17
 78.87     501.35
 78.97     539.81
 79.07     518.07
 79.17     535.99
 79.27     542.00
 79.37     487.00
 79.47     534.27
 79.57     482.00
 79.67     487.00
 79.77     518.00
 79.87     494.96
 79.97     530.00
 80.07     530.35
 80.17     498.97
 80.27     516.00
 80.37     555.00
 80.47     588.00
 80.57     538.00
 80.67     561.78
 80.77     646.81
 80.87     578.36
 80.97     646.00
 81.07     677.00
 81.17     671.41
 81.27     659.00
 81.37     679.00
 81.47     744.00
 81.57     707.00
 81.67     714.12
 81.77     734.00
 81.87     719.94
 81.97     704.53
 82.07     704.00
 82.17     693.90
 82.27     683.00
 82.37     629.00
 82.47     613.00
 82.57     607.00
 82.67     584.00
 82.77     565.11
 82.87     597.00
 82.97     556.00
 83.07     536.98
 83.17     525.30
 83.27     529.36
 83.37     529.00
 83.47     520.38
 83.57     522.00
 83.67     544.00
 83.77     496.00
 83.87     563.00
 83.97     520.34
 84.07     578.00
 84.17     581.00
 84.27     538.42
 84.37     567.00
 84.47     579.00
 84.57     548.00
 84.67     514.00
 84.77     529.36
 84.87     521.22
 84.97     512.99
 85.07     523.00
 85.17     499.79
 85.27     527.00
 85.37     522.00
 85.47     485.00
 85.57     508.00
 85.67     500.00
 85.77     495.00
 85.87     519.00
 85.97     519.00
 86.07     541.43
 86.17     518.00
 86.27     532.65
 86.37     521.96
 86.47     490.00
 86.57     523.28
 86.67     537.00
 86.77     526.36
 86.87     552.00
 86.97     501.00
 87.07     601.09
 87.17     561.00
 87.27     559.00
 87.37     597.00
 87.47     648.00
 87.57     621.00
 87.67     640.00
 87.77     641.00
 87.87     662.00
 87.97     590.63
 88.07     615.51
 88.17     614.00
 88.27     578.20
 88.37     635.00
 88.47     540.25
 88.57     564.00
 88.67     538.00
 88.77     562.00
 88.87     529.00
 88.97     618.48
 89.07     580.00
 89.17     582.00
 89.27     546.83
 89.37     603.00
 89.47     622.00
 89.57     559.61
 89.67     571.64
 89.77     573.00
 89.87     549.62
 89.97     582.82
 90.07     547.00
 90.17     524.00
 90.27     563.00
 90.37     550.00
 90.47     541.00
 90.57     545.00
 90.67     507.50
 90.77     533.00
 90.87     557.00
 90.97     502.00
 91.07     477.00
 91.17     486.70
 91.27     480.00
 91.37     511.67
 91.47     507.00
 91.57     548.00
 91.67     499.44
 91.77     532.00
 91.87     548.00
 91.97     487.27
 92.07     563.45
 92.17     544.00
 92.27     524.00
 92.37     545.49
 92.47     532.00
 92.57     560.90
 92.67     555.00
 92.77     593.31
 92.87     609.00
 92.97     617.00
 93.07     643.00
 93.17     675.00
 93.27     706.00
 93.37     741.00
 93.47     729.00
 93.57     746.65
 93.67     808.34
 93.77     772.03
 93.87     823.00
 93.97     793.00
 94.07     853.73
 94.17     768.35
 94.27     877.46
 94.37     849.00
 94.47     897.68
 94.57     818.97
 94.67     881.00
 94.77     895.09
 94.87     880.00
 94.97     897.00
 95.07     973.00
 95.17     899.00
 95.27     875.00
 95.37     929.32
 95.47     818.27
 95.57     869.00
 95.67     777.00
 95.77     805.00
 95.87     813.46
 95.97     733.00
 96.07     679.00
 96.17     660.06
 96.27     731.20
 96.37     738.83
 96.47     688.40
 96.57     764.00
 96.67     786.00
 96.77     761.00
 96.87     919.28
 96.97     878.54
 97.07     985.00
 97.17    1099.00
 97.27    1094.00
 97.37    1181.00
 97.47    1181.36
 97.57    1281.00
 97.67    1362.00
 97.77    1420.00
 97.87    1442.00
 97.97    1436.08
 98.07    1434.18
 98.17    1424.52
 98.27    1352.00
 98.37    1340.00
 98.47    1260.87
 98.57    1232.00
 98.67    1200.00
 98.77    1045.00
 98.87    1006.00
 98.97     958.00
 99.07     895.00
 99.17     882.27
 99.27     866.00
 99.37     819.00
 99.47     930.55
 99.57     890.05
 99.67    1022.00
 99.77    1010.00
 99.87    1073.00
 99.97    1132.00
100.07    1230.64
100.17    1356.00
100.27    1335.12
100.37    1521.00
100.47    1644.58
100.57    1626.00
100.67    1786.00
100.77    1815.00
100.87    1924.04
100.97    1906.04
101.07    1900.00
101.17    1983.00
101.27    1966.81
101.37    1921.00
101.47    1814.67
101.57    1903.53
101.67    1851.00
101.77    1664.00
101.87    1710.00
101.97    1545.00
102.07    1494.04
102.17    1388.38
102.27    1431.00
102.37    1264.00
102.47    1191.98
102.57    1183.71
102.67    1276.18
102.77    1220.00
102.87    1107.48
102.97    1116.00
103.07    1046.67
103.17    1100.00
103.27    1038.00
103.37     997.48
103.47     983.00
103.57     930.90
103.67     928.00
103.77     824.04
103.87     794.47
103.97     797.00
104.07     800.00
104.17     658.67
104.27     726.00
104.37     626.25
104.47     657.00
104.57     650.00
104.67     590.64
104.77     566.33
104.87     622.00
104.97     595.00
105.07     564.00
105.17     557.21
105.27     582.66
105.37     562.00
105.47     592.92
105.57     521.00
105.67     556.00
105.77     546.00
105.87     543.57
105.97     580.00
106.07     602.00
106.17     566.27
106.27     579.00
106.37     578.00
106.47     564.00
106.57     534.00
106.67     618.00
106.77     565.00
106.87     643.21
106.97     663.21
107.07     644.00
107.17     633.00
107.27     717.29
107.37     696.00
107.47     672.00
107.57     728.56
107.67     661.00
107.77     767.49
107.87     701.00
107.97     742.33
108.07     747.59
108.17     688.10
108.27     664.49
108.37     729.17
108.47     684.00
108.57     689.00
108.67     661.00
108.77     686.00
108.87     746.88
108.97     656.00
109.07     670.00
109.17     698.80
109.27     734.95
109.37     696.00
109.47     709.87
109.57     668.00
109.67     693.00
109.77     715.33
109.87     683.00
109.97     680.00
110.07     648.23
110.17     658.00
110.27     598.37
110.37     666.00
110.47     641.30
110.57     589.00
110.67     588.00
110.77     556.88
110.87     602.00
110.97     569.00
111.07     525.84
111.17     507.44
111.27     516.13
111.37     559.00
111.47     581.00
111.57     569.00
111.67     548.00
111.77     517.85
111.87     548.00
111.97     543.00
112.07     578.00
112.17     549.00
112.27     539.54
112.37     582.95
112.47     529.00
112.57     575.03
112.67     570.00
112.77     614.12
112.87     559.00
112.97     613.79
113.07     585.00
113.17     596.00
113.27     597.00
113.37     614.00
113.47     609.00
113.57     632.00
113.67     609.00
113.77     628.00
113.87     689.00
113.97     672.00
114.07     675.00
114.17     735.00
114.27     705.00
114.37     756.89
114.47     841.00
114.57     857.00
114.67     867.65
114.77    1035.00
114.87    1109.00
114.97    1281.00
115.07    1262.29
115.17    1524.00
115.27    1703.00
115.37    1925.00
115.47    2163.00
115.57    2465.00
115.67    2616.82
115.77    2854.84
115.87    3246.00
115.97    3558.00
116.07    3932.00
116.17    4154.31
116.27    4623.37
116.37    5125.73
116.47    5454.97
116.57    5926.00
116.67    6191.81
116.77    6373.00
116.87    6774.04
116.97    6765.79
117.07    6909.00
117.17    6796.03
117.27    6836.00
117.37    6821.00
117.47    6588.00
117.57    6273.00
117.67    6388.67
117.77    5901.00
117.87    5435.00
117.97    5145.84
118.07    4970.00
118.17    4594.00
118.27    4100.00
118.37    3868.04
118.47    3397.00
118.57    3201.02
118.67    2820.00
118.77    2564.17
118.87    2362.55
118.97    2030.00
119.07    1952.49
119.17    1677.58
119.27    1499.00
119.37    1357.00
119.47    1310.34
119.57    1212.00
119.67    1087.00
119.77    1023.00
119.87     887.02
119.97     843.29
120.07     842.00
120.17     802.76
120.27     710.64
120.37     721.00
120.47     679.00
120.57     669.01
120.67     636.00
120.77     643.29
120.87     654.63
120.97     673.00
121.07     627.00
121.17     586.00
121.27     571.00
121.37     601.00
121.47     572.00
121.57     605.00
121.67     601.00
121.77     623.00
121.87     579.00
121.97     618.00
122.07     620.32
122.17     593.46
122.27     595.00
122.37     588.51
122.47     602.00
122.57     590.00
122.67     649.00
122.77     644.00
122.87     688.22
122.97     675.00
123.07     589.89
123.17     652.00
123.27     636.00
123.37     636.92
123.47     619.40
123.57     677.00
123.67     615.15
123.77     681.24
123.87     662.00
123.97     670.30
124.07     638.00
124.17     623.00
124.27     596.25
124.37     583.41
124.47     616.00
124.57     609.00
124.67     560.97
124.77     626.00
124.87     587.00
124.97     582.00
