  9.97     592.00
 10.07     625.00
 10.17     581.00
 10.27     589.00
 10.37     564.00
 10.47     583.00
 10.57     551.71
 10.67     569.00
 10.77     536.68
 10.87     579.00
 10.97     599.45
 11.07     583.00
 11.17     567.00
 11.27     564.00
 11.37     570.00
 11.47     554.12
 11.57     576.00
 11.67     622.29
 11.77     593.41
 11.87     622.74
 11.97     632.00
 12.07     700.47
 12.17     735.24
 12.27     673.00
 12.37     668.42
 12.47     603.00
 12.57     601.00
 12.67     600.49
 12.77     609.32
 12.87     587.00
 12.97     572.00
 13.07     558.00
 13.17     588.42
 13.27     609.56
 13.37     550.61
 13.47     543.00
 13.57     557.00
 13.67     618.73
 13.77     562.21
 13.87     550.23
 13.97     592.00
 14.07     576.00
 14.17     591.00
 14.27     606.60
 14.37     601.31
 14.47     564.18
 14.57     542.00
 14.67     587.00
 14.77     520.00
 14.87     555.00
 14.97     556.00
 15.07     573.32
 15.17     541.00
 15.27     563.00
 15.37     567.00
 15.47     602.00
 15.57     540.14
 15.67     536.00
 15.77     612.79
 15.87     578.00
 15.97     544.00
 16.07     587.00
 16.17     632.00
 16.27     523.00
 16.37     601.03
 16.47     605.12
 16.57     573.22
 16.67     595.87
 16.77     506.00
 16.87     599.72
 16.97     559.69
 17.07     606.94
 17.17     584.18
 17.27     558.00
 17.37     545.98
 17.47     594.86
 17.57     605.00
 17.67     550.00
 17.77     548.00
 17.87     540.00
 17.97     612.01
 18.07     597.00
 18.17     591.00
 18.27     553.43
 18.37     522.82
 18.47     560.00
 18.57     541.42
 18.67     565.00
 18.77     578.00
 18.87     600.00
 18.97     561.00
 19.07     567.79
 19.17     538.00
 19.27     567.99
 19.37     556.00
 19.47     556.00
 19.57     600.81
 19.67     528.00
 19.77     544.00
 19.87     533.53
 19.97     556.00
 20.07     533.00
 20.17     523.00
 20.27     567.47
 20.37     518.03
 20.47     550.00
 20.57     543.00
 20.67     562.00
 20.77     551.00
 20.87     511.47
 20.97     589.16
 21.07     579.34
 21.17     534.11
 21.27     535.00
 21.37     566.00
 21.47     562.83
 21.57     542.00
 21.67     549.00
 21.77     515.56
 21.87     590.61
 21.97     585.63
 22.07     522.00
 22.17     508.00
 22.27     568.00
 22.37     556.00
 22.47     584.00
 22.57     523.00
 22.67     550.00
 22.77     536.34
 22.87     595.45
 22.97     507.37
 23.07     584.00
 23.17     556.00
 23.27     621.00
 23.37     530.00
 23.47     589.75
 23.57     572.00
 23.67     557.00
 23.77     575.67
 23.87     569.00
 23.97     548.00
 24.07     512.92
 24.17     504.56
 24.27     586.00
 24.37     559.00
 24.47     557.78
 24.57     566.36
 24.67     645.00
 24.77     606.65
 24.87     605.29
 24.97     585.00
 25.07     540.89
 25.17     551.00
 25.27     535.00
 25.37     593.60
 25.47     606.00
 25.57     564.48
 25.67     529.00
 25.77     547.00
 25.87     584.00
 25.97     571.00
 26.07     577.00
 26.17     583.00
 26.27     541.61
 26.37     561.00
 26.47     555.00
 26.57     587.00
 26.67     550.00
 26.77     512.00
 26.87     513.30
 26.97     579.00
 27.07     618.00
 27.17     543.00
 27.27     564.00
 27.37     580.00
 27.47     528.00
 27.57     508.17
 27.67     581.08
 27.77     563.00
 27.87     593.28
 27.97     669.00
 28.07     760.00
 28.17     874.00
 28.27    1010.77
 28.37     878.01
 28.47     846.00
 28.57     749.19
 28.67     737.00
 28.77     732.00
 28.87     854.00
 28.97     901.56
 29.07     790.00
 29.17     690.00
 29.27     653.00
 29.37     550.00
 29.47     619.00
 29.57     605.46
 29.67     583.00
 29.77     609.00
 29.87     522.72
 29.97     515.66
 30.07     546.00
 30.17     558.00
 30.27     549.00
 30.37     563.00
 30.47     538.00
 30.57     508.28
 30.67     564.00
 30.77     588.00
 30.87     597.00
 30.97     577.00
 31.07     644.16
 31.17     601.39
 31.27     595.95
 31.37     546.00
 31.47     562.78
 31.57     569.00
 31.67     552.24
 31.77     543.15
 31.87     532.00
 31.97     537.00
 32.07     570.00
 32.17     575.20
 32.27     489.05
 32.37     544.00
 32.47     565.00
 32.57     501.35
 32.67     583.00
 32.77     561.00
 32.87     563.36
 32.97     503.97
 33.07     539.00
 33.17     549.27
 33.27     554.00
 33.37     502.39
 33.47     563.00
 33.57     612.84
 33.67     615.00
 33.77     680.36
 33.87     844.00
 33.97    1047.00
 34.07    1067.00
 34.17    1064.00
 34.27     854.34
 34.37     769.00
 34.47     655.12
 34.57     610.00
 34.67     543.29
 34.77     541.00
 34.87     505.00
 34.97     541.00
 35.07     516.00
 35.17     543.00
 35.27     483.61
 35.37     519.00
 35.47     522.00
 35.57     569.00
 35.67     523.21
 35.77     548.00
 35.87     550.96
 35.97     575.00
 36.07     545.24
 36.17     475.00
 36.27     528.87
 36.37     516.00
 36.47     529.75
 36.57     503.37
 36.67     489.00
 36.77     517.00
 36.87     537.00
 36.97     501.67
 37.07     505.37
 37.17     505.00
 37.27     496.00
 37.37     518.55
 37.47     526.00
 37.57     487.00
 37.67     566.00
 37.77     568.02
 37.87     534.89
 37.97     519.00
 38.07     518.86
 38.17     536.00
 38.27     509.00
 38.37     487.00
 38.47     552.25
 38.57     517.00
 38.67     522.00
 38.77     524.00
 38.87     517.00
 38.97     469.40
 39.07     544.11
 39.17     552.85
 39.27     475.21
 39.37     539.00
 39.47     497.73
 39.57     504.00
 39.67     490.44
 39.77     504.00
 39.87     474.00
 39.97     503.00
 40.07     495.00
 40.17     533.17
 40.27     468.52
 40.37     531.00
 40.47     477.00
 40.57     473.00
 40.67     496.00
 40.77     471.00
 40.87     503.83
 40.97     516.58
 41.07     491.46
 41.17     491.00
 41.27     470.00
 41.37     486.00
 41.47     538.52
 41.57     495.00
 41.67     511.52
 41.77     512.00
 41.87     448.00
 41.97     508.32
 42.07     504.61
 42.17     560.97
 42.27     575.95
 42.37     553.00
 42.47     559.00
 42.57     614.12
 42.67     634.00
 42.77     626.00
 42.87     599.00
 42.97     569.00
 43.07     512.54
 43.17     521.00
 43.27     535.00
 43.37     504.15
 43.47     506.00
 43.57     475.25
 43.67     492.00
 43.77     528.62
 43.87     516.00
 43.97     514.00
 44.07     549.00
 44.17     489.86
 44.27     519.00
 44.37     496.00
 44.47     520.66
 44.57     542.99
 44.67     469.14
 44.77     485.00
 44.87     534.60
 44.97     491.17
 45.07     538.00
 45.17     505.00
 45.27     502.00
 45.37     505.00
 45.47     496.00
 45.57     482.83
 45.67     499.00
 45.77     544.13
 45.87     520.00
 45.97     546.21
 46.07     524.00
 46.17     504.43
 46.27     510.00
 46.37     467.05
 46.47     485.24
 46.57     509.00
 46.67     517.94
 46.77     511.00
 46.87     550.70
 46.97     484.00
 47.07     492.00
 47.17     534.86
 47.27     488.00
 47.37     523.00
 47.47     562.62
 47.57     572.00
 47.67     592.00
 47.77     626.52
 47.87     583.84
 47.97     590.00
 48.07     579.84
 48.17     519.00
 48.27     610.00
 48.37     517.17
 48.47     561.83
 48.57     538.00
 48.67     528.18
 48.77     508.61
 48.87     566.53
 48.97     555.96
 49.07     577.63
 49.17     590.00
 49.27     642.00
 49.37     672.00
 49.47     694.52
 49.57     840.13
 49.67     970.95
 49.77    1133.00
 49.87    1482.54
 49.97    1862.00
 50.07    2174.55
 50.17    2515.87
 50.27    2569.70
 50.37    2334.62
 50.47    1871.00
 50.57    1469.00
 50.67    1054.00
 50.77     862.00
 50.87     712.00
 50.97     667.00
 51.07     598.38
 51.17     639.00
 51.27     594.85
 51.37     561.00
 51.47     576.10
 51.57     573.99
 51.67     553.00
 51.77     499.98
 51.87     570.00
 51.97     522.00
 52.07     539.00
 52.17     514.00
 52.27     569.09
 52.37     588.00
 52.47     562.81
 52.57     503.78
 52.67     561.46
 52.77     605.00
 52.87     576.14
 52.97     664.00
 53.07     743.00
 53.17     890.89
 53.27    1060.00
 53.37    1145.00
 53.47    1233.73
 53.57    1201.00
 53.67    1105.80
 53.77     982.00
 53.87     859.00
 53.97     715.51
 54.07     691.00
 54.17     618.00
 54.27     575.00
 54.37     595.00
 54.47     605.00
 54.57     568.00
 54.67     592.00
 54.77     571.00
 54.87     555.00
 54.97     523.04
 55.07     624.00
 55.17     558.00
 55.27     587.00
 55.37     572.25
 55.47     543.07
 55.57     563.51
 55.67     567.00
 55.77     613.15
 55.87     603.00
 55.97     584.00
 56.07     703.00
 56.17     697.00
 56.27     833.00
 56.37    1087.00
 56.47    1381.14
 56.57    1757.00
 56.67    2181.92
 56.77    2410.57
 56.87    2600.00
 56.97    2625.00
 57.07    2312.86
 57.17    1913.16
 57.27    1614.09
 57.37    1320.00
 57.47     969.00
 57.57     871.00
 57.67     718.09
 57.77     711.00
 57.87     685.00
 57.97     666.00
 58.07     690.00
 58.17     702.00
 58.27     805.08
 58.37     837.00
 58.47     938.49
 58.57    1177.31
 58.67    1293.00
 58.77    1441.95
 58.87    1535.00
 58.97    1615.00
 59.07    1641.00
 59.17    1609.00
 59.27    1531.57
 59.37    1342.59
 59.47    1288.00
 59.57    1135.00
 59.67    1077.74
 59.77    1181.00
 59.87    1254.00
 59.97    1309.00
 60.07    1448.00
 60.17    1579.00
 60.27    1609.00
 60.37    1552.56
 60.47    1449.99
 60.57    1343.00
 60.67    1138.00
 60.77     876.63
 60.87     817.00
 60.97     731.00
 61.07     609.11
 61.17     640.00
 61.27     644.00
 61.37     631.80
 61.47     712.00
 61.57     709.00
 61.67     865.22
 61.77     943.42
 61.87    1167.98
 61.97    1231.00
 62.07    1416.00
 62.17    1502.58
 62.27    1317.00
 62.37    1333.43
 62.47    1150.33
 62.57    1105.84
 62.67     911.00
 62.77     718.00
 62.87     634.00
 62.97     631.00
 63.07     583.00
 63.17     610.82
 63.27     597.00
 63.37     600.35
 63.47     599.58
 63.57     517.06
 63.67     556.00
 63.77     584.00
 63.87     620.00
 63.97     653.00
 64.07     699.00
 64.17     745.00
 64.27     825.00
 64.37     947.00
 64.47     943.00
 64.57    1050.51
 64.67    1012.00
 64.77    1001.64
 64.87     989.00
 64.97     901.00
 65.07     828.34
 65.17     779.00
 65.27     741.00
 65.37     653.00
 65.47     651.00
 65.57     651.00
 65.67     579.69
 65.77     589.02
 65.87     580.32
 65.97     607.11
 66.07     568.00
 66.17     548.00
 66.27     585.85
 66.37     546.00
 66.47     521.96
 66.57     568.21
 66.67     571.00
 66.77     585.00
 66.87     615.35
 66.97     598.00
 67.07     627.00
 67.17     669.00
 67.27     725.00
 67.37     926.11
 67.47    1138.00
 67.57    1217.16
 67.67    1449.87
 67.77    1856.48
 67.87    1983.52
 67.97    2234.00
 68.07    2412.00
 68.17    2444.00
 68.27    2230.00
 68.37    2057.00
 68.47    1723.81
 68.57    1526.00
 68.67    1218.80
 68.77     997.00
 68.87     895.00
 68.97     779.26
 69.07     685.00
 69.17     604.79
 69.27     680.00
 69.37     587.00
 69.47     596.62
 69.57     585.00
 69.67     575.17
 69.77     571.00
 69.87     584.00
 69.97     533.68
 70.07     584.00
 70.17     539.00
 70.27     599.00
 70.37     603.00
 70.47     585.00
 70.57     543.00
 70.67     564.00
 70.77     580.00
 70.87     588.00
 70.97     637.00
 71.07     702.02
 71.17     671.00
 71.27     822.00
 71.37     874.00
 71.47    1026.00
 71.57    1274.00
 71.67    1437.00
 71.77    1504.00
 71.87    1749.00
 71.97    1902.74
 72.07    1908.17
 72.17    1830.53
 72.27    1815.39
 72.37    1732.00
 72.47    1546.00
 72.57    1359.00
 72.67    1236.00
 72.77    1080.00
 72.87     953.00
 72.97     880.12
 73.07     802.00
 73.17     761.00
 73.27     686.00
 73.37     721.00
 73.47     630.00
 73.57     647.00
 73.67     601.00
 73.77     576.00
 73.87     601.00
 73.97     543.56
 74.07     598.61
 74.17     552.26
 74.27     616.00
 74.37     643.00
 74.47     605.00
 74.57     646.00
 74.67     622.00
 74.77     644.00
 74.87     623.00
 74.97     596.00
 75.07     597.00
 75.17     541.71
 75.27     599.43
 75.37     562.00
 75.47     572.00
 75.57     563.67
 75.67     559.00
 75.77     559.00
 75.87     577.00
 75.97     617.00
 76.07     619.63
 76.17     600.00
 76.27     689.00
 76.37     676.00
 76.47     727.46
 76.57     642.00
 76.67     751.00
 76.77     681.00
 76.87     647.03
 76.97     668.00
 77.07     645.00
 77.17     587.00
 77.27     546.29
 77.37     561.12
 77.47     567.00
 77.57     476.00
 77.67     542.00
 77.77     501.13
 77.87     537.00
 77.97     504.00
 78.07     575.00
 78.17     513.62
 78.27     546.00
 78.37     554.86
 78.47     515.99
 78.57     546.00
 78.67     493.00
 78.77     521.64
 78.87     513.00
 78.97     530.07
 79.07     515.00
 79.17     541.00
 79.27     524.00
 79.37     522.00
 79.47     534.00
 79.57     507.00
 79.67     544.00
 79.77     516.00
 79.87     574.00
 79.97     542.00
 80.07     572.00
 80.17     565.00
 80.27     590.18
 80.37     556.00
 80.47     607.00
 80.57     585.00
 80.67     643.06
 80.77     648.00
 80.87     666.00
 80.97     695.78
 81.07     694.96
 81.17     709.00
 81.27     767.00
 81.37     754.00
 81.47     707.25
 81.57     704.40
 81.67     695.68
 81.77     723.00
 81.87     706.88
 81.97     689.44
 82.07     667.00
 82.17     660.00
 82.27     672.74
 82.37     615.00
 82.47     631.00
 82.57     637.60
 82.67     583.00
 82.77     575.00
 82.87     574.00
 82.97     519.00
 83.07     584.00
 83.17     537.48
 83.27     525.54
 83.37     558.00
 83.47     547.00
 83.57     573.16
 83.67     565.00
 83.77     583.00
 83.87     567.00
 83.97     601.00
 84.07     620.93
 84.17     606.33
 84.27     589.00
 84.37     564.38
 84.47     591.00
 84.57     542.00
 84.67     582.51
 84.77     548.45
 84.87     552.62
 84.97     521.63
 85.07     574.00
 85.17     524.02
 85.27     475.00
 85.37     527.00
 85.47     507.00
 85.57     493.00
 85.67     487.00
 85.77     569.37
 85.87     502.00
 85.97     490.00
 86.07     514.00
 86.17     535.00
 86.27     543.00
 86.37     551.00
 86.47     586.66
 86.57     543.96
 86.67     573.00
 86.77     520.00
 86.87     592.00
 86.97     636.00
 87.07     641.00
 87.17     630.00
 87.27     636.00
 87.37     625.00
 87.47     665.00
 87.57     660.00
 87.67     603.45
 87.77     609.00
 87.87     655.00
 87.97     635.56
 88.07     573.97
 88.17     537.38
 88.27     592.00
 88.37     585.00
 88.47     573.47
 88.57     546.43
 88.67     593.00
 88.77     571.00
 88.87     627.00
 88.97     636.00
 89.07     624.74
 89.17     598.00
 89.27     626.27
 89.37     573.74
 89.47     610.13
 89.57     603.00
 89.67     579.00
 89.77     587.00
 89.87     572.00
 89.97     570.71
 90.07     564.00
 90.17     537.07
 90.27     514.00
 90.37     569.68
 90.47     553.00
 90.57     536.00
 90.67     526.00
 90.77     547.00
 90.87     495.20
 90.97     526.00
 91.07     521.00
 91.17     509.00
 91.27     545.38
 91.37     513.71
 91.47     559.45
 91.57     526.00
 91.67     526.00
 91.77     501.56
 91.87     520.00
 91.97     577.00
 92.07     549.00
 92.17     541.00
 92.27     582.01
 92.37     600.00
 92.47     574.07
 92.57     673.00
 92.67     641.91
 92.77     704.00
 92.87     662.34
 92.97     776.00
 93.07     782.00
 93.17     717.63
 93.27     779.00
 93.37     832.00
 93.47     861.02
 93.57     803.00
 93.67     841.00
 93.77     868.00
 93.87     841.00
 93.97     830.61
 94.07     847.00
 94.17     817.15
 94.27     897.00
 94.37     828.08
 94.47     874.00
 94.57     947.00
 94.67     954.00
 94.77     894.22
 94.87     930.01
 94.97     903.00
 95.07     895.00
 95.17     856.00
 95.27     892.00
 95.37     813.00
 95.47     801.00
 95.57     729.00
 95.67     666.28
 95.77     729.00
 95.87     635.96
 95.97     725.09
 96.07     681.43
 96.17     695.00
 96.27     735.00
 96.37     766.59
 96.47     758.00
 96.57     826.00
 96.67     860.00
 96.77     946.34
 96.87    1064.00
 96.97    1114.00
 97.07    1166.79
 97.17    1330.00
 97.27    1404.00
 97.37    1366.00
 97.47    1359.30
 97.57    1422.00
 97.67    1308.00
 97.77    1341.26
 97.87    1334.00
 97.97    1329.00
 98.07    1187.00
 98.17    1157.00
 98.27    1109.00
 98.37     999.65
 98.47    1010.00
 98.57     911.00
 98.67     848.00
 98.77     822.00
 98.87     758.00
 98.97     851.13
 99.07     826.00
 99.17     807.00
 99.27     819.00
 99.37     936.00
 99.47     963.97
 99.57    1120.00
 99.67    1200.00
 99.77    1240.00
 99.87    1430.51
 99.97    1541.51
100.07    1684.00
100.17    1696.36
100.27    1868.00
100.37    2050.00
100.47    2022.00
100.57    2013.09
100.67    2136.00
100.77    2032.00
100.87    2109.00
100.97    2022.00
101.07    1937.46
101.17    1909.00
101.27    1794.00
101.37    1763.02
101.47    1581.00
101.57    1507.75
101.67    1431.91
101.77    1402.00
101.87    1379.00
101.97    1237.51
102.07    1221.00
102.17    1229.00
102.27    1078.00
102.37    1141.00
102.47    1152.29
102.57    1050.22
102.67    1016.00
102.77    1080.10
102.87    1036.00
102.97     939.00
103.07     934.00
103.17     954.00
103.27     881.00
103.37     778.06
103.47     775.00
103.57     756.00
103.67     702.00
103.77     683.26
103.87     671.00
103.97     646.19
104.07     600.00
104.17     556.00
104.27     554.00
104.37     568.00
104.47     595.38
104.57     570.45
104.67     553.00
104.77     504.44
104.87     564.00
104.97     554.78
105.07     514.00
105.17     547.00
105.27     571.89
105.37     558.91
105.47     530.00
105.57     557.00
105.67     564.00
105.77     535.25
105.87     546.00
105.97     601.94
106.07     536.32
106.17     584.00
106.27     557.00
106.37     611.00
106.47     619.85
106.57     614.00
106.67     667.78
106.77     673.05
106.87     658.22
106.97     660.00
107.07     660.00
107.17     662.37
107.27     647.00
107.37     702.00
107.47     688.00
107.57     688.00
107.67     692.00
107.77     689.70
107.87     687.00
107.97     662.75
108.07     736.00
108.17     677.00
108.27     684.44
108.37     704.00
108.47     642.68
108.57     710.00
108.67     677.00
108.77     691.00
108.87     710.00
108.97     636.00
109.07     672.39
109.17     694.09
109.27     680.00
109.37     625.73
109.47     607.23
109.57     646.00
109.67     659.15
109.77     606.00
109.87     605.00
109.97     578.00
110.07     609.00
110.17     582.00
110.27     581.00
110.37     552.00
110.47     566.68
110.57     539.00
110.67     533.83
110.77     534.57
110.87     519.00
110.97     560.00
111.07     524.00
111.17     532.00
111.27     548.16
111.37     523.96
111.47     547.00
111.57     579.00
111.67     566.00
111.77     525.07
111.87     551.00
111.97     524.00
112.07     548.00
112.17     551.31
112.27     559.00
112.37     548.00
112.47     591.00
112.57     607.00
112.67     624.00
112.77     666.00
112.87     687.00
112.97     682.29
113.07     663.00
113.17     762.00
113.27     747.00
113.37     741.00
113.47     748.59
113.57     889.33
113.67     935.00
113.77     876.94
113.87     924.64
113.97    1050.00
114.07    1053.00
114.17    1170.85
114.27    1138.00
114.37    1252.72
114.47    1355.00
114.57    1502.00
114.67    1627.27
114.77    1702.11
114.87    1956.61
114.97    2003.13
115.07    2317.53
115.17    2602.00
115.27    2780.13
115.37    3248.00
115.47    3339.00
115.57    3865.90
115.67    4098.00
115.77    4405.00
115.87    4715.00
115.97    5256.00
116.07    5558.00
116.17    5892.00
116.27    6282.03
116.37    6510.00
116.47    6666.00
116.57    7052.50
116.67    7085.00
116.77    7017.00
116.87    6797.25
116.97    6614.62
117.07    6545.00
117.17    6084.00
117.27    5879.88
117.37    5294.00
117.47    5045.00
117.57    4621.50
117.67    4329.00
117.77    3970.62
117.87    3476.74
117.97    3302.00
118.07    2981.00
118.17    2558.07
118.27    2251.38
118.37    1891.00
118.47    1738.00
118.57    1506.00
118.67    1464.52
118.77    1251.00
118.87    1088.14
118.97    1001.00
119.07     917.00
119.17     881.00
119.27     794.68
119.37     784.20
119.47     717.00
119.57     712.00
119.67     610.00
119.77     638.00
119.87     608.00
119.97     613.00
120.07     605.03
120.17     622.00
120.27     599.00
120.37     589.74
120.47     541.97
120.57     576.18
120.67     580.00
120.77     523.00
120.87     557.00
120.97     555.00
121.07     592.00
121.17     605.53
121.27     570.00
121.37     584.00
121.47     579.00
121.57     618.74
121.67     624.00
121.77     599.16
121.87     581.00
121.97     597.76
122.07     592.00
122.17     615.11
122.27     621.00
122.37     623.00
122.47     622.00
122.57     638.37
122.67     631.00
122.77     671.21
122.87     667.15
122.97     654.67
123.07     665.00
123.17     627.00
123.27     630.22
123.37     626.77
123.47     613.56
123.57     661.00
123.67     593.27
123.77     637.00
123.87     633.00
123.97     624.11
124.07     620.22
124.17     621.20
124.27     605.00
124.37     593.99
124.47     620.00
124.57     621.00
124.67     579.00
124.77     582.00
124.87     546.03
124.97     563.00
