  9.97     619.19
 10.07     578.00
 10.17     624.00
 10.27     609.34
 10.37     605.00
 10.47     607.83
 10.57     536.45
 10.67     601.68
 10.77     577.00
 10.87     592.02
 10.97     600.79
 11.07     587.19
 11.17     596.91
 11.27     620.03
 11.37     627.00
 11.47     575.00
 11.57     562.54
 11.67     583.00
 11.77     618.00
 11.87     649.00
 11.97     662.00
 12.07     732.00
 12.17     711.00
 12.27     653.00
 12.37     639.00
 12.47     639.57
 12.57     574.00
 12.67     605.00
 12.77     549.97
 12.87     565.00
 12.97     585.45
 13.07     561.58
 13.17     590.00
 13.27     542.00
 13.37     575.00
 13.47     580.00
 13.57     538.51
 13.67     595.63
 13.77     528.00
 13.87     551.00
 13.97     610.00
 14.07     600.56
 14.17     613.31
 14.27     609.66
 14.37     562.00
 14.47     586.00
 14.57     498.00
 14.67     552.00
 14.77     573.00
 14.87     554.00
 14.97     553.00
 15.07     605.29
 15.17     531.00
 15.27     542.00
 15.37     556.77
 15.47     586.91
 15.57     554.00
 15.67     563.00
 15.77     602.00
 15.87     527.40
 15.97     571.00
 16.07     553.00
 16.17     522.44
 16.27     531.82
 16.37     578.99
 16.47     559.85
 16.57     566.00
 16.67     578.87
 16.77     572.00
 16.87     562.00
 16.97     593.95
 17.07     567.34
 17.17     533.00
 17.27     530.22
 17.37     554.00
 17.47     598.17
 17.57     574.00
 17.67     589.83
 17.77     568.00
 17.87     560.00
 17.97     585.62
 18.07     580.00
 18.17     565.00
 18.27     537.63
 18.37     587.00
 18.47     529.51
 18.57     554.14
 18.67     534.12
 18.77     520.47
 18.87     564.79
 18.97     582.24
 19.07     546.00
 19.17     588.10
 19.27     560.00
 19.37     585.85
 19.47     541.56
 19.57     564.00
 19.67     527.00
 19.77     564.00
 19.87     550.00
 19.97     549.00
 20.07     552.00
 20.17     544.48
 20.27     568.55
 20.37     523.00
 20.47     564.14
 20.57     544.00
 20.67     545.00
 20.77     505.00
 20.87     582.00
 20.97     523.00
 21.07     553.00
 21.17     569.10
 21.27     572.00
 21.37     583.45
 21.47     529.00
 21.57     521.00
 21.67     596.00
 21.77     577.54
 21.87     532.00
 21.97     523.00
 22.07     528.07
 22.17     563.00
 22.27     590.00
 22.37     553.00
 22.47     589.00
 22.57     540.75
 22.67     559.12
 22.77     570.68
 22.87     552.47
 22.97     550.25
 23.07     541.00
 23.17     583.95
 23.27     564.00
 23.37     556.00
 23.47     543.00
 23.57     519.00
 23.67     538.00
 23.77     512.91
 23.87     535.00
 23.97     553.00
 24.07     536.12
 24.17     572.00
 24.27     540.00
 24.37     565.00
 24.47     589.00
 24.57     571.92
 24.67     634.85
 24.77     649.57
 24.87     592.14
 24.97     604.00
 25.07     599.00
 25.17     606.46
 25.27     530.87
 25.37     586.00
 25.47     496.00
 25.57     562.00
 25.67     571.56
 25.77     564.00
 25.87     522.04
 25.97     522.00
 26.07     518.00
 26.17     574.00
 26.27     574.81
 26.37     523.00
 26.47     534.00
 26.57     532.00
 26.67     602.00
 26.77     602.00
 26.87     566.23
 26.97     581.52
 27.07     550.00
 27.17     527.97
 27.27     504.00
 27.37     551.00
 27.47     513.00
 27.57     596.00
 27.67     536.89
 27.77     573.61
 27.87     589.00
 27.97     626.43
 28.07     762.00
 28.17     914.00
 28.27     953.00
 28.37     963.47
 28.47     823.00
 28.57     727.00
 28.67     709.00
 28.77     720.00
 28.87     775.89
 28.97     841.45
 29.07     834.53
 29.17     718.00
 29.27     628.00
 29.37     670.00
 29.47     572.70
 29.57     625.00
 29.67     666.00
 29.77     629.00
 29.87     653.00
 29.97     541.94
 30.07     513.72
 30.17     544.08
 30.27     568.00
 30.37     526.38
 30.47     559.00
 30.57     548.00
 30.67     592.00
 30.77     606.55
 30.87     610.84
 30.97     671.00
 31.07     583.00
 31.17     603.00
 31.27     571.00
 31.37     536.87
 31.47     516.00
 31.57     544.00
 31.67     505.35
 31.77     557.00
 31.87     516.00
 31.97     523.00
 32.07     510.00
 32.17     500.00
 32.27     523.00
 32.37     574.00
 32.47     490.27
 32.57     560.00
 32.67     520.00
 32.77     513.00
 32.87     547.47
 32.97     493.32
 33.07     522.00
 33.17     572.39
 33.27     518.00
 33.37     555.56
 33.47     579.00
 33.57     629.22
 33.67     654.00
 33.77     776.61
 33.87     861.86
 33.97     999.00
 34.07    1089.00
 34.17    1033.00
 34.27     892.00
 34.37     745.18
 34.47     581.00
 34.57     595.00
 34.67     568.32
 34.77     530.88
 34.87     509.00
 34.97     496.00
 35.07     554.00
 35.17     505.01
 35.27     532.00
 35.37     534.00
 35.47     490.00
 35.57     519.49
 35.67     553.00
 35.77     521.00
 35.87     483.00
 35.97     542.00
 36.07     488.14
 36.17     483.75
 36.27     547.22
 36.37     539.36
 36.47     518.00
 36.57     490.00
 36.67     548.33
 36.77     470.96
 36.87     547.40
 36.97     498.93
 37.07     546.66
 37.17     537.00
 37.27     494.00
 37.37     493.81
 37.47     512.12
 37.57     498.58
 37.67     519.00
 37.77     528.00
 37.87     551.00
 37.97     534.00
 38.07     540.00
 38.17     508.00
 38.27     535.00
 38.37     505.00
 38.47     509.00
 38.57     557.00
 38.67     508.00
 38.77     510.18
 38.87     525.07
 38.97     501.00
 39.07     483.00
 39.17     476.00
 39.27     481.07
 39.37     505.78
 39.47     521.00
 39.57     517.00
 39.67     529.94
 39.77     499.07
 39.87     540.15
 39.97     475.00
 40.07     520.13
 40.17     474.00
 40.27     487.00
 40.37     468.00
 40.47     524.70
 40.57     505.00
 40.67     480.82
 40.77     541.20
 40.87     532.00
 40.97     494.82
 41.07     518.28
 41.17     504.00
 41.27     492.00
 41.37     518.44
 41.47     499.48
 41.57     494.00
 41.67     480.10
 41.77     472.00
 41.87     498.00
 41.97     519.00
 42.07     449.00
 42.17     510.00
 42.27     529.00
 42.37     566.00
 42.47     601.00
 42.57     625.67
 42.67     591.79
 42.77     593.66
 42.87     616.34
 42.97     587.10
 43.07     546.00
 43.17     512.00
 43.27     510.00
 43.37     487.00
 43.47     535.57
 43.57     467.44
 43.67     479.04
 43.77     513.00
 43.87     511.00
 43.97     498.00
 44.07     536.00
 44.17     488.87
 44.27     510.00
 44.37     554.00
 44.47     532.92
 44.57     504.00
 44.67     530.00
 44.77     485.21
 44.87     500.00
 44.97     510.00
 45.07     534.66
 45.17     481.00
 45.27     498.00
 45.37     532.48
 45.47     509.00
 45.57     523.00
 45.67     471.00
 45.77     467.00
 45.87     526.00
 45.97     532.56
 46.07     476.00
 46.17     501.00
 46.27     497.00
 46.37     446.00
 46.47     513.00
 46.57     496.00
 46.67     506.00
 46.77     501.00
 46.87     548.22
 46.97     481.98
 47.07     475.00
 47.17     485.12
 47.27     514.00
 47.37     558.24
 47.47     522.65
 47.57     563.00
 47.67     533.55
 47.77     587.90
 47.87     607.00
 47.97     642.00
 48.07     546.00
 48.17     579.00
 48.27     568.34
 48.37     577.00
 48.47     552.00
 48.57     540.16
 48.67     550.00
 48.77     541.00
 48.87     518.00
 48.97     500.00
 49.07     537.25
 49.17     589.00
 49.27     619.94
 49.37     678.38
 49.47     742.32
 49.57     824.00
 49.67     864.72
 49.77    1178.72
 49.87    1509.51
 49.97    1877.84
 50.07    2218.19
 50.17    2429.50
 50.27    2631.00
 50.37    2296.00
 50.47    1792.00
 50.57    1468.95
 50.67    1020.00
 50.77     801.00
 50.87     679.00
 50.97     663.00
 51.07     624.00
 51.17     596.00
 51.27     567.67
 51.37     579.00
 51.47     609.46
 51.57     565.33
 51.67     531.99
 51.77     536.00
 51.87     504.00
 51.97     552.00
 52.07     582.00
 52.17     539.00
 52.27     591.00
 52.37     546.00
 52.47     588.00
 52.57     567.00
 52.67     634.00
 52.77     574.00
 52.87     681.00
 52.97     742.00
 53.07     789.00
 53.17     893.00
 53.27    1059.63
 53.37    1160.00
 53.47    1226.51
 53.57    1188.00
 53.67    1063.00
 53.77    1029.00
 53.87     901.00
 53.97     791.00
 54.07     723.43
 54.17     579.00
 54.27     627.46
 54.37     563.00
 54.47     525.00
 54.57     549.00
 54.67     564.00
 54.77     525.00
 54.87     534.00
 54.97     549.00
 55.07     546.00
 55.17     539.00
 55.27     566.00
 55.37     607.00
 55.47     523.55
 55.57     552.00
 55.67     526.74
 55.77     587.00
 55.87     585.00
 55.97     590.19
 56.07     694.00
 56.17     740.00
 56.27     869.00
 56.37    1090.00
 56.47    1406.00
 56.57    1790.00
 56.67    2068.00
 56.77    2583.22
 56.87    2723.00
 56.97    2598.00
 57.07    2419.22
 57.17    2031.86
 57.27    1689.00
 57.37    1291.45
 57.47     986.31
 57.57     917.00
 57.67     754.02
 57.77     708.00
 57.87     671.00
 57.97     674.00
 58.07     691.41
 58.17     749.00
 58.27     772.00
 58.37     870.72
 58.47    1021.12
 58.57    1093.00
 58.67    1267.00
 58.77    1334.05
 58.87    1557.00
 58.97    1613.00
 59.07    1598.00
 59.17    1522.84
 59.27    1523.88
 59.37    1321.57
 59.47    1286.00
 59.57    1177.00
 59.67    1165.00
 59.77    1198.60
 59.87    1237.00
 59.97    1356.00
 60.07    1386.87
 60.17    1609.00
 60.27    1490.47
 60.37    1493.00
 60.47    1445.00
 60.57    1305.00
 60.67    1072.96
 60.77     966.00
 60.87     810.00
 60.97     676.00
 61.07     656.00
 61.17     666.53
 61.27     635.00
 61.37     643.00
 61.47     673.00
 61.57     769.00
 61.67     840.00
 61.77     991.00
 61.87    1131.00
 61.97    1288.00
 62.07    1442.18
 62.17    1489.40
 62.27    1404.00
 62.37    1277.51
 62.47    1169.00
 62.57    1097.00
 62.67     956.76
 62.77     786.47
 62.87     680.00
 62.97     589.00
 63.07     632.65
 63.17     626.28
 63.27     561.00
 63.37     573.03
 63.47     566.00
 63.57     577.84
 63.67     556.00
 63.77     556.00
 63.87     650.85
 63.97     688.00
 64.07     754.00
 64.17     760.00
 64.27     859.96
 64.37     912.00
 64.47     958.26
 64.57    1044.00
 64.67    1002.00
 64.77    1008.37
 64.87     993.00
 64.97     890.11
 65.07     865.00
 65.17     800.00
 65.27     749.00
 65.37     737.44
 65.47     620.28
 65.57     600.25
 65.67     592.00
 65.77     560.00
 65.87     562.00
 65.97     550.00
 66.07     542.00
 66.17     583.00
 66.27     549.59
 66.37     553.00
 66.47     545.00
 66.57     537.01
 66.67     545.00
 66.77     617.89
 66.87     566.36
 66.97     577.00
 67.07     648.61
 67.17     674.00
 67.27     802.00
 67.37     900.00
 67.47     995.00
 67.57    1242.72
 67.67    1544.00
 67.77    1763.00
 67.87    2047.00
 67.97    2231.00
 68.07    2328.43
 68.17    2443.00
 68.27    2260.00
 68.37    2000.18
 68.47    1775.89
 68.57    1572.04
 68.67    1298.21
 68.77    1061.00
 68.87     856.00
 68.97     827.00
 69.07     679.00
 69.17     649.00
 69.27     582.00
 69.37     551.80
 69.47     575.00
 69.57     544.42
 69.67     573.28
 69.77     568.96
 69.87     569.00
 69.97     589.86
 70.07     614.00
 70.17     579.00
 70.27     567.00
 70.37     551.00
 70.47     597.00
 70.57     581.00
 70.67     534.00
 70.77     590.00
 70.87     562.63
 70.97     616.83
 71.07     659.00
 71.17     735.00
 71.27     825.34
 71.37     900.00
 71.47    1018.00
 71.57    1240.00
 71.67    1432.74
 71.77    1586.00
 71.87    1757.00
 71.97    1811.79
 72.07    1910.00
 72.17    1924.00
 72.27    1845.32
 72.37    1675.00
 72.47    1482.00
 72.57    1336.41
 72.67    1202.00
 72.77    1107.41
 72.87     898.00
 72.97     939.85
 73.07     759.00
 73.17     699.00
 73.27     755.57
 73.37     704.51
 73.47     628.00
 73.57     612.00
 73.67     618.76
 73.77     619.00
 73.87     583.00
 73.97     598.57
 74.07     623.00
 74.17     599.00
 74.27     624.00
 74.37     619.00
 74.47     593.00
 74.57     634.00
 74.67     605.00
 74.77     561.53
 74.87     620.00
 74.97     571.64
 75.07     512.97
 75.17     572.00
 75.27     531.00
 75.37     534.36
 75.47     534.00
 75.57     531.00
 75.67     523.47
 75.77     540.44
 75.87     563.00
 75.97     617.00
 76.07     610.00
 76.17     609.00
 76.27     697.00
 76.37     714.00
 76.47     674.00
 76.57     697.00
 76.67     731.46
 76.77     729.00
 76.87     651.00
 76.97     617.00
 77.07     642.81
 77.17     589.00
 77.27     596.00
 77.37     572.00
 77.47     515.00
 77.57     513.97
 77.67     564.00
 77.77     537.00
 77.87     522.00
 77.97     495.00
 78.07     522.00
 78.17     515.01
 78.27     506.00
 78.37     527.00
 78.47     579.00
 78.57     553.96
 78.67     552.00
 78.77     532.00
 78.87     505.00
 78.97     540.00
 79.07     533.00
 79.17     547.04
 79.27     556.00
 79.37     507.00
 79.47     521.00
 79.57     534.40
 79.67     543.68
 79.77     499.00
 79.87     557.00
 79.97     579.00
 80.07     551.95
 80.17     563.38
 80.27     525.48
 80.37     526.00
 80.47     594.48
 80.57     639.89
 80.67     588.00
 80.77     610.00
 80.87     689.00
 80.97     675.00
 81.07     703.00
 81.17     688.94
 81.27     727.00
 81.37     747.08
 81.47     786.00
 81.57     770.04
 81.67     758.53
 81.77     768.00
 81.87     702.51
 81.97     725.41
 82.07     726.00
 82.17     663.61
 82.27     666.00
 82.37     648.00
 82.47     631.00
 82.57     598.50
 82.67     616.96
 82.77     613.00
 82.87     546.00
 82.97     557.00
 83.07     546.00
 83.17     584.89
 83.27     532.00
 83.37     533.00
 83.47     537.38
 83.57     561.00
 83.67     573.00
 83.77     583.51
 83.87     627.00
 83.97     622.00
 84.07     581.00
 84.17     542.00
 84.27     559.00
 84.37     579.92
 84.47     521.02
 84.57     541.00
 84.67     513.00
 84.77     571.00
 84.87     590.00
 84.97     535.00
 85.07     573.59
 85.17     517.00
 85.27     494.00
 85.37     520.50
 85.47     522.79
 85.57     499.00
 85.67     529.00
 85.77     556.00
 85.87     536.00
 85.97     466.00
 86.07     555.00
 86.17     539.00
 86.27     555.00
 86.37     519.04
 86.47     579.00
 86.57     559.00
 86.67     548.00
 86.77     574.00
 86.87     612.00
 86.97     593.83
 87.07     624.00
 87.17     625.54
 87.27     645.00
 87.37     673.00
 87.47     620.00
 87.57     623.00
 87.67     619.00
 87.77     581.95
 87.87     603.53
 87.97     634.97
 88.07     627.00
 88.17     559.04
 88.27     589.00
 88.37     542.00
 88.47     599.00
 88.57     560.00
 88.67     574.46
 88.77     549.00
 88.87     606.00
 88.97     606.00
 89.07     612.00
 89.17     642.00
 89.27     605.00
 89.37     638.14
 89.47     602.00
 89.57     639.54
 89.67     610.14
 89.77     551.02
 89.87     592.85
 89.97     559.00
 90.07     534.00
 90.17     549.87
 90.27     542.00
 90.37     518.00
 90.47     577.51
 90.57     580.00
 90.67     529.00
 90.77     512.00
 90.87     492.93
 90.97     536.00
 91.07     526.00
 91.17     500.00
 91.27     567.93
 91.37     496.11
 91.47     534.00
 91.57     529.00
 91.67     515.00
 91.77     517.99
 91.87     505.41
 91.97     549.00
 92.07     550.00
 92.17     579.00
 92.27     567.00
 92.37     622.00
 92.47     623.09
 92.57     657.00
 92.67     693.00
 92.77     713.84
 92.87     695.00
 92.97     648.00
 93.07     704.00
 93.17     790.00
 93.27     737.35
 93.37     819.00
 93.47     874.00
 93.57     776.69
 93.67     824.00
 93.77     826.00
 93.87     881.57
 93.97     836.04
 94.07     882.00
 94.17     836.00
 94.27     889.72
 94.37     894.00
 94.47     839.00
 94.57     897.24
 94.67     943.00
 94.77     907.43
 94.87     910.00
 94.97     920.00
 95.07     851.94
 95.17     807.64
 95.27     844.00
 95.37     803.39
 95.47     709.70
 95.57     768.00
 95.67     722.00
 95.77     729.71
 95.87     705.00
 95.97     694.00
 96.07     677.00
 96.17     663.00
 96.27     724.00
 96.37     749.40
 96.47     754.84
 96.57     893.07
 96.67     894.00
 96.77     966.00
 96.87     984.00
 96.97    1086.00
 97.07    1177.00
 97.17    1294.39
 97.27    1308.00
 97.37    1423.00
 97.47    1456.00
 97.57    1461.19
 97.67    1475.00
 97.77    1436.24
 97.87    1338.00
 97.97    1313.82
 98.07    1198.05
 98.17    1161.66
 98.27    1091.11
 98.37    1066.96
 98.47    1019.00
 98.57     860.21
 98.67     827.00
 98.77     874.50
 98.87     857.82
 98.97     823.00
 99.07     771.00
 99.17     812.00
 99.27     838.00
 99.37     921.00
 99.47     991.83
 99.57    1078.00
 99.67    1219.00
 99.77    1311.00
 99.87    1398.33
 99.97    1484.76
100.07    1644.00
100.17    1720.21
100.27    1851.00
100.37    1864.26
100.47    1977.00
100.57    2054.77
100.67    2148.28
100.77    2082.00
100.87    2038.00
100.97    2054.00
101.07    1966.00
101.17    1922.00
101.27    1822.51
101.37    1711.46
101.47    1637.85
101.57    1490.30
101.67    1439.00
101.77    1439.09
101.87    1290.41
101.97    1230.00
102.07    1182.95
102.17    1204.00
102.27    1108.00
102.37    1137.00
102.47    1086.00
102.57    1100.85
102.67    1031.00
102.77     987.00
102.87    1027.33
102.97     958.00
103.07     969.47
103.17     911.00
103.27     794.00
103.37     831.84
103.47     772.00
103.57     761.46
103.67     730.00
103.77     656.00
103.87     617.73
103.97     632.00
104.07     572.16
104.17     580.00
104.27     596.00
104.37     548.00
104.47     526.20
104.57     582.79
104.67     551.34
104.77     495.30
104.87     575.38
104.97     503.29
105.07     512.00
105.17     581.00
105.27     533.72
105.37     544.00
105.47     540.00
105.57     548.00
105.67     552.00
105.77     554.05
105.87     540.24
105.97     583.00
106.07     604.00
106.17     561.00
106.27     619.00
106.37     575.00
106.47     567.00
106.57     640.00
106.67     675.43
106.77     614.00
106.87     624.00
106.97     677.00
107.07     652.85
107.17     673.00
107.27     665.00
107.37     646.00
107.47     658.00
107.57     740.80
107.67     741.42
107.77     700.91
107.87     637.00
107.97     654.00
108.07     723.03
108.17     696.00
108.27     667.46
108.37     721.00
108.47     649.72
108.57     692.50
108.67     716.00
108.77     663.00
108.87     644.30
108.97     684.05
109.07     678.34
109.17     661.48
109.27     641.00
109.37     633.00
109.47     616.00
109.57     627.13
109.67     620.16
109.77     634.69
109.87     584.00
109.97     583.00
110.07     615.12
110.17     569.00
110.27     544.12
110.37     517.65
110.47     617.00
110.57     555.00
110.67     566.00
110.77     544.00
110.87     542.00
110.97     571.00
111.07     587.00
111.17     532.25
111.27     548.80
111.37     564.00
111.47     541.59
111.57     547.00
111.67     591.35
111.77     517.00
111.87     516.00
111.97     583.52
112.07     570.00
112.17     531.27
112.27     594.63
112.37     604.00
112.47     626.00
112.57     579.41
112.67     576.97
112.77     621.00
112.87     649.62
112.97     634.20
113.07     657.71
113.17     755.21
113.27     737.00
113.37     812.00
113.47     805.00
113.57     859.30
113.67     856.14
113.77     899.05
113.87     933.95
113.97     977.00
114.07    1031.00
114.17    1146.39
114.27    1117.00
114.37    1264.00
114.47    1292.00
114.57    1440.00
114.67    1612.93
114.77    1690.00
114.87    1963.00
114.97    2035.00
115.07    2340.51
115.17    2577.00
115.27    2850.00
115.37    3137.00
115.47    3505.50
115.57    3773.00
115.67    4023.00
115.77    4441.00
115.87    4841.62
115.97    5122.00
116.07    5539.00
116.17    6004.00
116.27    6320.00
116.37    6712.41
116.47    6673.89
116.57    6843.00
116.67    7078.00
116.77    6892.00
116.87    6802.00
116.97    6808.00
117.07    6515.81
117.17    6241.00
117.27    5652.00
117.37    5323.00
117.47    5172.37
117.57    4612.00
117.67    4248.00
117.77    3932.28
117.87    3596.00
117.97    3218.00
118.07    2976.00
118.17    2640.00
118.27    2213.44
118.37    1982.00
118.47    1743.64
118.57    1513.00
118.67    1371.49
118.77    1197.00
118.87    1096.00
118.97    1023.00
119.07     921.04
119.17     897.10
119.27     794.00
119.37     789.29
119.47     777.54
119.57     676.00
119.67     632.82
119.77     663.00
119.87     656.00
119.97     653.01
120.07     643.00
120.17     555.43
120.27     588.81
120.37     587.00
120.47     592.03
120.57     553.00
120.67     547.81
120.77     552.00
120.87     551.00
120.97     557.00
121.07     584.00
121.17     585.09
121.27     596.27
121.37     614.90
121.47     616.44
121.57     584.23
121.67     590.00
121.77     580.00
121.87     561.00
121.97     615.36
122.07     648.58
122.17     619.00
122.27     575.26
122.37     636.00
122.47     617.00
122.57     603.00
122.67     656.00
122.77     630.00
122.87     675.00
122.97     691.00
123.07     637.00
123.17     686.07
123.27     669.00
123.37     627.00
123.47     647.59
123.57     653.00
123.67     630.00
123.77     635.00
123.87     590.61
123.97     566.00
124.07     565.86
124.17     670.00
124.27     635.00
124.37     619.00
124.47     583.00
124.57     582.00
124.67     631.49
124.77     573.17
124.87     612.00
124.97     543.00
