  9.97     631.00
 10.07     579.00
 10.17     590.00
 10.27     584.00
 10.37     579.00
 10.47     650.00
 10.57     550.93
 10.67     581.00
 10.77     590.00
 10.87     586.00
 10.97     538.79
 11.07     630.00
 11.17     585.00
 11.27     623.16
 11.37     590.00
 11.47     623.79
 11.57     563.00
 11.67     569.60
 11.77     671.00
 11.87     622.00
 11.97     674.98
 12.07     663.00
 12.17     688.00
 12.27     760.68
 12.37     625.00
 12.47     655.00
 12.57     617.80
 12.67     579.00
 12.77     565.61
 12.87     590.63
 12.97     555.00
 13.07     567.00
 13.17     535.00
 13.27     546.00
 13.37     587.00
 13.47     564.00
 13.57     557.00
 13.67     505.00
 13.77     574.00
 13.87     602.00
 13.97     534.00
 14.07     569.98
 14.17     608.44
 14.27     588.00
 14.37     542.86
 14.47     562.12
 14.57     543.00
 14.67     565.25
 14.77     602.00
 14.87     569.00
 14.97     548.39
 15.07     578.00
 15.17     589.71
 15.27     503.00
 15.37     566.00
 15.47     562.00
 15.57     570.22
 15.67     539.26
 15.77     579.00
 15.87     570.00
 15.97     550.00
 16.07     566.00
 16.17     535.00
 16.27     549.00
 16.37     557.83
 16.47     544.00
 16.57     572.00
 16.67     537.00
 16.77     593.00
 16.87     547.00
 16.97     555.00
 17.07     544.00
 17.17     561.47
 17.27     596.00
 17.37     586.00
 17.47     606.00
 17.57     605.00
 17.67     595.00
 17.77     529.45
 17.87     570.00
 17.97     535.00
 18.07     541.00
 18.17     567.28
 18.27     553.00
 18.37     541.80
 18.47     600.87
 18.57     579.00
 18.67     536.00
 18.77     507.00
 18.87     546.00
 18.97     542.00
 19.07     584.00
 19.17     541.00
 19.27     541.53
 19.37     571.43
 19.47     598.63
 19.57     554.00
 19.67     591.40
 19.77     563.57
 19.87     571.00
 19.97     538.78
 20.07     528.00
 20.17     569.00
 20.27     551.51
 20.37     531.54
 20.47     546.36
 20.57     534.00
 20.67     591.00
 20.77     573.00
 20.87     521.00
 20.97     560.48
 21.07     556.26
 21.17     584.00
 21.27     542.00
 21.37     590.95
 21.47     552.00
 21.57     575.00
 21.67     565.00
 21.77     555.09
 21.87     523.16
 21.97     571.00
 22.07     571.00
 22.17     589.00
 22.27     536.96
 22.37     591.80
 22.47     568.00
 22.57     555.73
 22.67     538.07
 22.77     587.51
 22.87     520.00
 22.97     542.24
 23.07     573.00
 23.17     531.26
 23.27     563.67
 23.37     553.00
 23.47     560.56
 23.57     549.00
 23.67     548.00
 23.77     564.00
 23.87     510.80
 23.97     588.34
 24.07     545.34
 24.17     522.00
 24.27     541.00
 24.37     511.35
 24.47     603.91
 24.57     649.00
 24.67     588.00
 24.77     628.54
 24.87     692.00
 24.97     595.00
 25.07     608.00
 25.17     582.00
 25.27     531.00
 25.37     576.80
 25.47     498.50
 25.57     516.24
 25.67     544.00
 25.77     552.00
 25.87     530.35
 25.97     508.06
 26.07     554.70
 26.17     540.00
 26.27     529.00
 26.37     518.50
 26.47     541.00
 26.57     545.00
 26.67     545.00
 26.77     550.00
 26.87     512.00
 26.97     539.00
 27.07     558.00
 27.17     546.00
 27.27     555.00
 27.37     512.84
 27.47     516.34
 27.57     551.88
 27.67     564.00
 27.77     515.25
 27.87     569.34
 27.97     672.27
 28.07     731.00
 28.17     866.18
 28.27     984.00
 28.37     953.00
 28.47     845.00
 28.57     687.22
 28.67     646.14
 28.77     737.69
 28.87     799.00
 28.97     839.71
 29.07     750.00
 29.17     719.00
 29.27     614.00
 29.37     649.00
 29.47     550.37
 29.57     576.00
 29.67     618.00
 29.77     574.88
 29.87     609.60
 29.97     577.95
 30.07     592.00
 30.17     550.00
 30.27     533.00
 30.37     558.28
 30.47     512.00
 30.57     529.96
 30.67     551.08
 30.77     536.13
 30.87     603.02
 30.97     598.74
 31.07     598.00
 31.17     611.00
 31.27     569.00
 31.37     560.00
 31.47     523.62
 31.57     523.00
 31.67     521.00
 31.77     507.86
 31.87     521.74
 31.97     506.00
 32.07     523.95
 32.17     531.00
 32.27     586.00
 32.37     530.29
 32.47     560.00
 32.57     556.00
 32.67     537.00
 32.77     558.00
 32.87     505.00
 32.97     537.50
 33.07     510.00
 33.17     557.00
 33.27     550.89
 33.37     560.00
 33.47     566.42
 33.57     565.40
 33.67     599.00
 33.77     712.00
 33.87     799.00
 33.97     972.00
 34.07    1027.00
 34.17    1043.05
 34.27     940.00
 34.37     747.00
 34.47     706.65
 34.57     633.63
 34.67     552.00
 34.77     520.33
 34.87     514.00
 34.97     538.01
 35.07     516.00
 35.17     544.48
 35.27     522.00
 35.37     508.00
 35.47     495.00
 35.57     545.00
 35.67     472.65
 35.77     477.00
 35.87     570.00
 35.97     453.00
 36.07     464.00
 36.17     492.00
 36.27     502.00
 36.37     502.00
 36.47     460.00
 36.57     525.55
 36.67     497.00
 36.77     482.00
 36.87     514.00
 36.97     493.00
 37.07     479.00
 37.17     569.00
 37.27     501.49
 37.37     483.31
 37.47     496.00
 37.57     492.15
 37.67     541.69
 37.77     528.00
 37.87     546.30
 37.97     516.00
 38.07     493.00
 38.17     503.00
 38.27     514.00
 38.37     478.00
 38.47     526.00
 38.57     441.00
 38.67     504.81
 38.77     468.00
 38.87     508.76
 38.97     479.00
 39.07     475.25
 39.17     499.00
 39.27     489.66
 39.37     469.06
 39.47     483.00
 39.57     484.56
 39.67     523.00
 39.77     519.09
 39.87     510.52
 39.97     479.80
 40.07     476.00
 40.17     497.78
 40.27     500.00
 40.37     503.69
 40.47     496.67
 40.57     495.00
 40.67     483.00
 40.77     460.00
 40.87     464.00
 40.97     486.94
 41.07     499.00
 41.17     488.00
 41.27     534.61
 41.37     481.56
 41.47     505.00
 41.57     526.00
 41.67     477.00
 41.77     483.00
 41.87     468.00
 41.97     517.29
 42.07     499.00
 42.17     509.00
 42.27     510.23
 42.37     550.00
 42.47     534.00
 42.57     592.00
 42.67     646.14
 42.77     626.78
 42.87     542.00
 42.97     543.00
 43.07     508.00
 43.17     522.00
 43.27     469.00
 43.37     486.00
 43.47     536.44
 43.57     530.66
 43.67     499.87
 43.77     460.89
 43.87     494.00
 43.97     478.65
 44.07     465.43
 44.17     500.20
 44.27     471.00
 44.37     460.00
 44.47     532.30
 44.57     502.00
 44.67     476.00
 44.77     496.00
 44.87     459.00
 44.97     479.00
 45.07     524.00
 45.17     455.34
 45.27     480.00
 45.37     467.15
 45.47     492.14
 45.57     489.00
 45.67     478.26
 45.77     463.32
 45.87     477.00
 45.97     526.28
 46.07     494.35
 46.17     471.00
 46.27     471.00
 46.37     508.67
 46.47     529.22
 46.57     501.00
 46.67     548.00
 46.77     513.00
 46.87     515.00
 46.97     475.00
 47.07     507.00
 47.17     464.00
 47.27     529.00
 47.37     482.50
 47.47     530.00
 47.57     575.00
 47.67     600.00
 47.77     603.43
 47.87     586.00
 47.97     547.90
 48.07     552.00
 48.17     554.00
 48.27     593.60
 48.37     523.00
 48.47     537.00
 48.57     563.13
 48.67     515.00
 48.77     507.00
 48.87     552.52
 48.97     539.00
 49.07     605.96
 49.17     561.39
 49.27     645.87
 49.37     603.00
 49.47     674.37
 49.57     778.68
 49.67     943.00
 49.77    1026.00
 49.87    1428.00
 49.97    1650.24
 50.07    2093.90
 50.17    2509.00
 50.27    2504.00
 50.37    2336.00
 50.47    2067.81
 50.57    1501.00
 50.67    1133.00
 50.77     854.00
 50.87     801.27
 50.97     674.00
 51.07     614.00
 51.17     650.00
 51.27     569.85
 51.37     619.77
 51.47     573.40
 51.57     611.00
 51.67     563.00
 51.77     571.00
 51.87     512.06
 51.97     498.34
 52.07     520.00
 52.17     580.00
 52.27     539.67
 52.37     545.00
 52.47     540.00
 52.57     628.00
 52.67     609.00
 52.77     616.00
 52.87     607.00
 52.97     671.00
 53.07     775.00
 53.17     801.89
 53.27    1007.63
 53.37    1092.00
 53.47    1153.00
 53.57    1191.00
 53.67    1147.00
 53.77    1038.00
 53.87     887.39
 53.97     773.00
 54.07     691.41
 54.17     666.00
 54.27     589.31
 54.37     584.00
 54.47     502.64
 54.57     602.00
 54.67     552.00
 54.77     523.00
 54.87     547.00
 54.97     555.00
 55.07     546.94
 55.17     543.00
 55.27     568.00
 55.37     561.00
 55.47     531.00
 55.57     552.00
 55.67     577.00
 55.77     594.71
 55.87     620.20
 55.97     587.00
 56.07     637.00
 56.17     688.00
 56.27     816.72
 56.37    1016.00
 56.47    1261.00
 56.57    1600.00
 56.67    1955.00
 56.77    2489.10
 56.87    2611.00
 56.97    2666.00
 57.07    2548.00
 57.17    2235.00
 57.27    1836.00
 57.37    1490.00
 57.47    1062.00
 57.57     948.00
 57.67     793.00
 57.77     768.00
 57.87     698.00
 57.97     684.39
 58.07     640.20
 58.17     694.00
 58.27     756.00
 58.37     825.00
 58.47     933.00
 58.57    1022.00
 58.67    1319.00
 58.77    1376.00
 58.87    1572.00
 58.97    1632.06
 59.07    1687.00
 59.17    1661.00
 59.27    1589.82
 59.37    1399.46
 59.47    1264.00
 59.57    1255.00
 59.67    1143.00
 59.77    1141.00
 59.87    1123.53
 59.97    1243.00
 60.07    1399.00
 60.17    1539.00
 60.27    1595.86
 60.37    1554.55
 60.47    1405.05
 60.57    1331.00
 60.67    1131.00
 60.77     983.15
 60.87     877.00
 60.97     711.09
 61.07     668.00
 61.17     619.02
 61.27     650.00
 61.37     615.48
 61.47     644.55
 61.57     693.00
 61.67     825.00
 61.77     944.00
 61.87    1034.00
 61.97    1173.00
 62.07    1368.92
 62.17    1442.00
 62.27    1343.00
 62.37    1342.00
 62.47    1281.00
 62.57    1186.20
 62.67     997.48
 62.77     860.52
 62.87     681.00
 62.97     646.00
 63.07     631.32
 63.17     635.57
 63.27     520.46
 63.37     530.00
 63.47     526.21
 63.57     610.00
 63.67     548.16
 63.77     539.92
 63.87     614.00
 63.97     636.00
 64.07     662.04
 64.17     719.00
 64.27     855.00
 64.37     854.10
 64.47     954.33
 64.57    1064.00
 64.67    1026.00
 64.77    1092.00
 64.87    1031.00
 64.97     949.00
 65.07     833.00
 65.17     808.48
 65.27     765.00
 65.37     691.38
 65.47     648.00
 65.57     640.00
 65.67     578.47
 65.77     547.86
 65.87     556.00
 65.97     615.00
 66.07     517.57
 66.17     544.80
 66.27     548.74
 66.37     506.90
 66.47     560.00
 66.57     557.67
 66.67     508.00
 66.77     520.95
 66.87     595.00
 66.97     556.52
 67.07     576.50
 67.17     617.63
 67.27     730.00
 67.37     858.82
 67.47    1012.26
 67.57    1084.17
 67.67    1443.82
 67.77    1624.00
 67.87    1789.00
 67.97    2202.00
 68.07    2463.00
 68.17    2374.00
 68.27    2346.00
 68.37    2181.00
 68.47    1937.90
 68.57    1669.00
 68.67    1373.00
 68.77    1197.75
 68.87     925.00
 68.97     824.25
 69.07     730.00
 69.17     721.00
 69.27     603.15
 69.37     623.00
 69.47     583.50
 69.57     557.84
 69.67     568.00
 69.77     555.00
 69.87     584.64
 69.97     554.00
 70.07     517.00
 70.17     564.34
 70.27     561.00
 70.37     568.00
 70.47     567.00
 70.57     537.00
 70.67     581.11
 70.77     596.00
 70.87     568.00
 70.97     575.00
 71.07     679.85
 71.17     682.33
 71.27     802.17
 71.37     800.86
 71.47     985.73
 71.57    1113.00
 71.67    1287.00
 71.77    1555.51
 71.87    1746.09
 71.97    1777.64
 72.07    1894.00
 72.17    1964.00
 72.27    1824.08
 72.37    1638.06
 72.47    1568.85
 72.57    1436.00
 72.67    1222.00
 72.77    1153.00
 72.87    1025.00
 72.97     948.00
 73.07     857.00
 73.17     799.00
 73.27     759.00
 73.37     656.00
 73.47     629.00
 73.57     632.00
 73.67     593.00
 73.77     604.00
 73.87     565.00
 73.97     553.11
 74.07     589.40
 74.17     597.00
 74.27     554.00
 74.37     545.00
 74.47     610.00
 74.57     644.00
 74.67     564.00
 74.77     637.00
 74.87     601.27
 74.97     572.00
 75.07     621.00
 75.17     564.52
 75.27     599.00
 75.37     573.00
 75.47     525.93
 75.57     567.00
 75.67     556.00
 75.77     573.20
 75.87     607.74
 75.97     588.00
 76.07     609.00
 76.17     653.50
 76.27     639.00
 76.37     675.86
 76.47     728.67
 76.57     718.00
 76.67     663.00
 76.77     721.54
 76.87     689.94
 76.97     589.00
 77.07     611.00
 77.17     625.00
 77.27     623.44
 77.37     512.00
 77.47     603.89
 77.57     573.87
 77.67     528.86
 77.77     527.00
 77.87     512.00
 77.97     556.00
 78.07     513.53
 78.17     566.00
 78.27     513.00
 78.37     528.95
 78.47     545.61
 78.57     543.00
 78.67     485.56
 78.77     510.81
 78.87     489.00
 78.97     495.00
 79.07     523.30
 79.17     534.00
 79.27     494.00
 79.37     494.94
 79.47     552.00
 79.57     526.00
 79.67     499.63
 79.77     521.00
 79.87     541.00
 79.97     516.00
 80.07     535.29
 80.17     557.76
 80.27     550.00
 80.37     586.00
 80.47     619.00
 80.57     626.00
 80.67     607.00
 80.77     631.00
 80.87     639.00
 80.97     709.44
 81.07     675.00
 81.17     717.00
 81.27     710.69
 81.37     670.00
 81.47     792.33
 81.57     721.21
 81.67     751.79
 81.77     779.89
 81.87     736.00
 81.97     712.00
 82.07     717.00
 82.17     628.00
 82.27     667.00
 82.37     632.00
 82.47     631.00
 82.57     608.00
 82.67     610.00
 82.77     599.56
 82.87     574.00
 82.97     551.00
 83.07     566.00
 83.17     505.25
 83.27     555.88
 83.37     558.00
 83.47     557.51
 83.57     559.00
 83.67     524.81
 83.77     525.00
 83.87     528.00
 83.97     550.00
 84.07     565.41
 84.17     603.81
 84.27     588.11
 84.37     598.25
 84.47     543.00
 84.57     513.48
 84.67     521.00
 84.77     545.72
 84.87     553.00
 84.97     497.00
 85.07     541.76
 85.17     550.49
 85.27     480.00
 85.37     508.00
 85.47     522.30
 85.57     494.04
 85.67     513.00
 85.77     531.64
 85.87     520.00
 85.97     510.00
 86.07     451.00
 86.17     534.87
 86.27     516.00
 86.37     535.00
 86.47     570.00
 86.57     537.00
 86.67     597.00
 86.77     596.00
 86.87     569.00
 86.97     563.00
 87.07     588.00
 87.17     584.74
 87.27     638.93
 87.37     598.54
 87.47     634.00
 87.57     665.71
 87.67     668.00
 87.77     637.88
 87.87     623.55
 87.97     574.94
 88.07     556.00
 88.17     623.00
 88.27     582.72
 88.37     541.00
 88.47     584.00
 88.57     586.00
 88.67     535.16
 88.77     577.00
 88.87     534.36
 88.97     560.63
 89.07     550.70
 89.17     600.00
 89.27     605.00
 89.37     630.00
 89.47     579.57
 89.57     563.81
 89.67     570.00
 89.77     558.86
 89.87     583.00
 89.97     637.00
 90.07     551.00
 90.17     539.17
 90.27     517.00
 90.37     479.00
 90.47     479.00
 90.57     518.00
 90.67     526.00
 90.77     547.38
 90.87     535.00
 90.97     560.00
 91.07     512.00
 91.17     549.04
 91.27     497.00
 91.37     512.00
 91.47     502.67
 91.57     530.00
 91.67     467.00
 91.77     553.00
 91.87     562.47
 91.97     536.42
 92.07     551.00
 92.17     530.33
 92.27     571.31
 92.37     600.00
 92.47     577.00
 92.57     622.00
 92.67     674.00
 92.77     689.00
 92.87     706.00
 92.97     711.00
 93.07     767.00
 93.17     765.88
 93.27     824.00
 93.37     835.00
 93.47     815.00
 93.57     828.10
 93.67     871.00
 93.77     824.28
 93.87     902.00
 93.97     810.00
 94.07     880.82
 94.17     813.00
 94.27     901.00
 94.37     883.00
 94.47     813.54
 94.57     850.02
 94.67     906.00
 94.77     947.00
 94.87     952.00
 94.97     899.00
 95.07     844.85
 95.17     905.00
 95.27     895.00
 95.37     840.00
 95.47     776.59
 95.57     749.00
 95.67     734.00
 95.77     688.00
 95.87     637.00
 95.97     647.00
 96.07     666.00
 96.17     678.97
 96.27     711.72
 96.37     710.73
 96.47     759.26
 96.57     758.00
 96.67     910.32
 96.77     912.69
 96.87    1004.00
 96.97    1037.00
 97.07    1075.00
 97.17    1218.00
 97.27    1273.00
 97.37    1381.00
 97.47    1446.17
 97.57    1439.00
 97.67    1418.00
 97.77    1462.00
 97.87    1459.00
 97.97    1368.00
 98.07    1250.00
 98.17    1188.00
 98.27    1210.00
 98.37    1082.00
 98.47    1008.00
 98.57     909.00
 98.67     838.23
 98.77     829.00
 98.87     859.86
 98.97     773.38
 99.07     827.58
 99.17     792.68
 99.27     859.94
 99.37     862.00
 99.47     991.00
 99.57    1009.00
 99.67    1037.54
 99.77    1241.35
 99.87    1219.94
 99.97    1405.00
100.07    1543.00
100.17    1615.25
100.27    1742.00
100.37    1865.00
100.47    1986.52
100.57    1941.15
100.67    2130.98
100.77    2103.22
100.87    2100.00
100.97    2108.00
101.07    2080.00
101.17    1927.95
101.27    1908.00
101.37    1832.91
101.47    1705.54
101.57    1624.64
101.67    1513.00
101.77    1538.85
101.87    1435.43
101.97    1291.00
102.07    1251.00
102.17    1208.00
102.27    1153.00
102.37    1150.00
102.47    1084.00
102.57    1106.94
102.67    1035.00
102.77    1103.00
102.87    1027.61
102.97     991.00
103.07     980.02
103.17     917.00
103.27     859.82
103.37     812.00
103.47     810.00
103.57     782.00
103.67     737.00
103.77     674.00
103.87     650.00
103.97     608.00
104.07     610.51
104.17     654.00
104.27     602.00
104.37     592.68
104.47     577.66
104.57     542.00
104.67     561.00
104.77     579.00
104.87     578.00
104.97     526.00
105.07     528.00
105.17     514.66
105.27     522.37
105.37     527.00
105.47     522.00
105.57     565.90
105.67     521.00
105.77     519.15
105.87     517.06
105.97     559.00
106.07     501.96
106.17     569.00
106.27     558.00
106.37     601.75
106.47     608.30
106.57     628.00
106.67     578.00
106.77     606.00
106.87     640.00
106.97     708.80
107.07     661.00
107.17     699.00
107.27     635.00
107.37     686.49
107.47     672.00
107.57     696.00
107.67     646.83
107.77     702.20
107.87     650.34
107.97     636.00
108.07     642.00
108.17     655.03
108.27     697.00
108.37     708.96
108.47     670.00
108.57     720.66
108.67     686.00
108.77     659.00
108.87     697.00
108.97     723.00
109.07     751.00
109.17     674.96
109.27     680.00
109.37     627.00
109.47     654.00
109.57     643.80
109.67     601.04
109.77     598.00
109.87     584.00
109.97     644.00
110.07     576.00
110.17     571.39
110.27     559.89
110.37     513.67
110.47     541.52
110.57     556.00
110.67     493.18
110.77     545.49
110.87     567.00
110.97     522.00
111.07     532.00
111.17     556.77
111.27     508.00
111.37     512.87
111.47     523.00
111.57     529.00
111.67     512.00
111.77     568.00
111.87     566.00
111.97     532.00
112.07     515.00
112.17     525.17
112.27     513.75
112.37     540.00
112.47     586.00
112.57     585.00
112.67     574.00
112.77     598.85
112.87     598.70
112.97     639.16
113.07     683.00
113.17     657.00
113.27     727.54
113.37     756.32
113.47     809.00
113.57     791.44
113.67     783.02
113.77     876.00
113.87     970.00
113.97     964.11
114.07     968.00
114.17    1068.00
114.27    1102.00
114.37    1245.00
114.47    1350.00
114.57    1422.07
114.67    1411.21
114.77    1615.00
114.87    1806.11
114.97    2033.00
115.07    2109.00
115.17    2360.00
115.27    2641.00
115.37    2764.33
115.47    3331.00
115.57    3606.14
115.67    3861.36
115.77    4137.00
115.87    4484.00
115.97    5108.70
116.07    5335.00
116.17    5710.00
116.27    6061.00
116.37    6417.00
116.47    6747.00
116.57    6993.00
116.67    7189.00
116.77    7187.00
116.87    7176.18
116.97    6782.00
117.07    6944.23
117.17    6513.00
117.27    6382.00
117.37    5900.63
117.47    5293.00
117.57    5287.93
117.67    4658.00
117.77    4456.00
117.87    4029.56
117.97    3542.80
118.07    3184.41
118.17    2929.06
118.27    2663.00
118.37    2240.11
118.47    2070.00
118.57    1756.00
118.67    1597.00
118.77    1385.00
118.87    1342.53
118.97    1130.00
119.07    1100.24
119.17     978.59
119.27     864.00
119.37     886.00
119.47     729.00
119.57     694.00
119.67     710.00
119.77     609.00
119.87     638.00
119.97     593.19
120.07     635.72
120.17     576.00
120.27     639.42
120.37     584.00
120.47     553.00
120.57     587.00
120.67     548.00
120.77     546.00
120.87     530.00
120.97     564.64
121.07     598.61
121.17     563.00
121.27     534.00
121.37     595.00
121.47     579.00
121.57     587.00
121.67     563.00
121.77     607.00
121.87     559.00
121.97     600.92
122.07     644.43
122.17     605.00
122.27     603.00
122.37     598.00
122.47     637.00
122.57     605.65
122.67     679.00
122.77     655.00
122.87     640.00
122.97     640.34
123.07     632.00
123.17     656.00
123.27     622.00
123.37     667.00
123.47     637.00
123.57     616.19
123.67     673.23
123.77     591.00
123.87     654.11
123.97     641.00
124.07     605.00
124.17     614.24
124.27     549.36
124.37     596.00
124.47     601.00
124.57     606.00
124.67     619.06
124.77     601.02
124.87     609.00
124.97     584.00
