  9.97     634.00
 10.07     584.41
 10.17     564.31
 10.27     606.35
 10.37     562.13
 10.47     581.00
 10.57     588.00
 10.67     522.95
 10.77     573.00
 10.87     557.23
 10.97     562.00
 11.07     588.71
 11.17     622.00
 11.27     544.00
 11.37     596.00
 11.47     576.61
 11.57     572.00
 11.67     539.88
 11.77     622.00
 11.87     618.00
 11.97     645.00
 12.07     664.00
 12.17     670.00
 12.27     643.06
 12.37     626.00
 12.47     633.00
 12.57     625.00
 12.67     568.66
 12.77     544.00
 12.87     536.00
 12.97     573.00
 13.07     589.37
 13.17     545.00
 13.27     533.00
 13.37     607.45
 13.47     587.73
 13.57     575.88
 13.67     557.64
 13.77     537.00
 13.87     555.63
 13.97     576.00
 14.07     535.02
 14.17     546.00
 14.27     570.00
 14.37     547.00
 14.47     587.93
 14.57     560.10
 14.67     539.00
 14.77     550.64
 14.87     553.00
 14.97     527.00
 15.07     536.00
 15.17     562.00
 15.27     535.00
 15.37     560.00
 15.47     566.00
 15.57     558.00
 15.67     597.24
 15.77     523.00
 15.87     584.13
 15.97     526.00
 16.07     609.00
 16.17     565.09
 16.27     529.00
 16.37     539.00
 16.47     526.00
 16.57     503.00
 16.67     590.55
 16.77     546.98
 16.87     558.00
 16.97     515.25
 17.07     547.00
 17.17     517.25
 17.27     588.07
 17.37     513.86
 17.47     560.00
 17.57     575.00
 17.67     545.00
 17.77     579.00
 17.87     568.00
 17.97     604.13
 18.07     532.23
 18.17     511.00
 18.27     562.00
 18.37     592.88
 18.47     566.00
 18.57     541.00
 18.67     528.92
 18.77     542.00
 18.87     553.33
 18.97     576.00
 19.07     511.75
 19.17     565.43
 19.27     567.00
 19.37     558.00
 19.47     552.97
 19.57     541.00
 19.67     549.00
 19.77     582.00
 19.87     551.00
 19.97     572.68
 20.07     551.00
 20.17     571.00
 20.27     571.00
 20.37     572.00
 20.47     561.00
 20.57     505.39
 20.67     558.00
 20.77     582.00
 20.87     571.00
 20.97     550.00
 21.07     562.00
 21.17     514.75
 21.27     552.00
 21.37     563.00
 21.47     505.00
 21.57     542.00
 21.67     589.80
 21.77     554.00
 21.87     531.00
 21.97     566.00
 22.07     557.00
 22.17     577.00
 22.27     552.00
 22.37     567.88
 22.47     552.33
 22.57     564.00
 22.67     517.00
 22.77     512.75
 22.87     551.77
 22.97     530.00
 23.07     530.00
 23.17     575.76
 23.27     557.00
 23.37     526.00
 23.47     498.71
 23.57     553.44
 23.67     567.00
 23.77     541.00
 23.87     536.00
 23.97     538.00
 24.07     541.98
 24.17     568.00
 24.27     534.95
 24.37     553.00
 24.47     563.00
 24.57     552.29
 24.67     595.00
 24.77     616.00
 24.87     619.00
 24.97     616.79
 25.07     642.71
 25.17     562.91
 25.27     535.86
 25.37     546.00
 25.47     553.88
 25.57     569.00
 25.67     570.00
 25.77     582.00
 25.87     583.00
 25.97     571.00
 26.07     527.47
 26.17     603.00
 26.27     532.85
 26.37     585.00
 26.47     499.05
 26.57     524.00
 26.67     536.50
 26.77     571.02
 26.87     548.25
 26.97     500.58
 27.07     523.69
 27.17     538.00
 27.27     494.60
 27.37     569.29
 27.47     598.00
 27.57     588.00
 27.67     591.00
 27.77     527.87
 27.87     615.00
 27.97     647.00
 28.07     780.00
 28.17     837.00
 28.27     873.14
 28.37     973.30
 28.47     834.00
 28.57     729.30
 28.67     708.00
 28.77     716.92
 28.87     781.00
 28.97     849.00
 29.07     790.00
 29.17     703.58
 29.27     639.88
 29.37     565.00
 29.47     577.00
 29.57     583.00
 29.67     568.00
 29.77     599.00
 29.87     497.48
 29.97     564.64
 30.07     541.00
 30.17     565.95
 30.27     491.09
 30.37     561.00
 30.47     645.00
 30.57     548.01
 30.67     570.00
 30.77     540.98
 30.87     591.00
 30.97     603.73
 31.07     619.85
 31.17     590.00
 31.27     543.27
 31.37     583.07
 31.47     488.78
 31.57     518.00
 31.67     552.00
 31.77     500.09
 31.87     545.00
 31.97     551.00
 32.07     496.97
 32.17     530.30
 32.27     553.52
 32.37     530.61
 32.47     529.00
 32.57     542.00
 32.67     534.76
 32.77     511.00
 32.87     508.00
 32.97     530.00
 33.07     539.00
 33.17     559.00
 33.27     522.67
 33.37     554.74
 33.47     541.00
 33.57     651.00
 33.67     581.00
 33.77     748.00
 33.87     837.24
 33.97     902.00
 34.07    1003.79
 34.17    1044.00
 34.27     887.00
 34.37     757.00
 34.47     674.50
 34.57     581.00
 34.67     592.78
 34.77     546.00
 34.87     518.00
 34.97     521.00
 35.07     510.24
 35.17     477.38
 35.27     527.47
 35.37     497.00
 35.47     493.00
 35.57     519.00
 35.67     495.00
 35.77     480.00
 35.87     506.00
 35.97     508.00
 36.07     503.00
 36.17     497.02
 36.27     512.00
 36.37     470.00
 36.47     508.21
 36.57     496.00
 36.67     476.48
 36.77     497.00
 36.87     516.00
 36.97     528.00
 37.07     491.00
 37.17     503.47
 37.27     507.23
 37.37     504.75
 37.47     524.60
 37.57     473.00
 37.67     500.00
 37.77     526.05
 37.87     529.00
 37.97     542.00
 38.07     496.86
 38.17     469.00
 38.27     485.00
 38.37     490.00
 38.47     473.00
 38.57     532.00
 38.67     514.00
 38.77     508.31
 38.87     497.00
 38.97     519.77
 39.07     461.57
 39.17     485.00
 39.27     489.00
 39.37     477.00
 39.47     493.00
 39.57     536.30
 39.67     487.00
 39.77     515.82
 39.87     492.44
 39.97     476.00
 40.07     486.03
 40.17     504.00
 40.27     480.42
 40.37     472.06
 40.47     456.00
 40.57     473.00
 40.67     466.00
 40.77     483.00
 40.87     511.00
 40.97     501.00
 41.07     462.00
 41.17     489.34
 41.27     530.00
 41.37     498.00
 41.47     535.56
 41.57     524.00
 41.67     531.15
 41.77     482.00
 41.87     492.00
 41.97     495.00
 42.07     466.00
 42.17     508.00
 42.27     541.00
 42.37     544.00
 42.47     575.00
 42.57     603.12
 42.67     561.00
 42.77     590.13
 42.87     567.00
 42.97     580.00
 43.07     564.16
 43.17     573.11
 43.27     489.00
 43.37     497.53
 43.47     456.00
 43.57     471.02
 43.67     494.73
 43.77     482.00
 43.87     454.39
 43.97     479.00
 44.07     540.00
 44.17     488.00
 44.27     503.00
 44.37     456.00
 44.47     520.00
 44.57     496.00
 44.67     520.00
 44.77     537.22
 44.87     505.06
 44.97     515.00
 45.07     455.70
 45.17     487.00
 45.27     537.50
 45.37     506.00
 45.47     510.60
 45.57     452.00
 45.67     471.00
 45.77     506.07
 45.87     480.68
 45.97     467.00
 46.07     478.00
 46.17     505.00
 46.27     485.00
 46.37     536.00
 46.47     530.00
 46.57     519.00
 46.67     510.00
 46.77     518.40
 46.87     507.00
 46.97     458.66
 47.07     524.00
 47.17     526.54
 47.27     517.00
 47.37     551.00
 47.47     493.00
 47.57     537.00
 47.67     562.00
 47.77     559.38
 47.87     553.00
 47.97     592.75
 48.07     597.75
 48.17     565.58
 48.27     564.00
 48.37     529.00
 48.47     558.00
 48.57     561.23
 48.67     514.38
 48.77     574.50
 48.87     504.39
 48.97     496.00
 49.07     518.00
 49.17     517.35
 49.27     556.34
 49.37     622.97
 49.47     611.00
 49.57     713.82
 49.67     790.00
 49.77     938.00
 49.87    1257.00
 49.97    1639.12
 50.07    1920.71
 50.17    2281.00
 50.27    2389.00
 50.37    2272.00
 50.47    2066.72
 50.57    1673.00
 50.67    1294.00
 50.77     997.55
 50.87     882.11
 50.97     713.00
 51.07     673.01
 51.17     581.98
 51.27     602.28
 51.37     593.94
 51.47     588.00
 51.57     597.56
 51.67     544.25
 51.77     568.50
 51.87     554.83
 51.97     571.43
 52.07     513.00
 52.17     564.00
 52.27     577.09
 52.37     547.46
 52.47     545.00
 52.57     592.00
 52.67     603.00
 52.77     546.25
 52.87     630.60
 52.97     717.00
 53.07     768.00
 53.17     827.70
 53.27     926.36
 53.37    1014.70
 53.47    1186.65
 53.57    1118.68
 53.67    1128.00
 53.77    1056.00
 53.87    1013.00
 53.97     856.00
 54.07     784.00
 54.17     661.00
 54.27     667.23
 54.37     610.08
 54.47     611.00
 54.57     579.00
 54.67     596.00
 54.77     572.00
 54.87     586.00
 54.97     543.00
 55.07     529.65
 55.17     546.39
 55.27     589.00
 55.37     589.00
 55.47     561.00
 55.57     571.00
 55.67     605.00
 55.77     631.93
 55.87     588.00
 55.97     620.00
 56.07     691.38
 56.17     737.11
 56.27     831.04
 56.37    1022.00
 56.47    1225.21
 56.57    1521.00
 56.67    1883.20
 56.77    2239.00
 56.87    2574.69
 56.97    2587.00
 57.07    2560.60
 57.17    2261.00
 57.27    1967.00
 57.37    1553.00
 57.47    1268.00
 57.57    1083.58
 57.67     852.00
 57.77     805.31
 57.87     696.37
 57.97     653.00
 58.07     697.00
 58.17     685.44
 58.27     796.00
 58.37     761.00
 58.47     818.00
 58.57     895.00
 58.67     968.00
 58.77    1123.00
 58.87    1169.00
 58.97    1207.88
 59.07    1341.01
 59.17    1339.25
 59.27    1328.00
 59.37    1161.60
 59.47    1259.00
 59.57    1219.98
 59.67    1168.00
 59.77    1137.00
 59.87    1243.00
 59.97    1283.00
 60.07    1367.61
 60.17    1568.00
 60.27    1559.00
 60.37    1513.00
 60.47    1478.00
 60.57    1378.00
 60.67    1269.00
 60.77    1077.00
 60.87     907.30
 60.97     761.09
 61.07     758.00
 61.17     681.00
 61.27     676.44
 61.37     649.00
 61.47     712.07
 61.57     713.00
 61.67     829.00
 61.77     884.00
 61.87     955.00
 61.97    1122.00
 62.07    1335.20
 62.17    1301.00
 62.27    1390.15
 62.37    1323.00
 62.47    1281.00
 62.57    1166.00
 62.67    1004.00
 62.77     875.00
 62.87     765.74
 62.97     718.00
 63.07     651.00
 63.17     615.79
 63.27     604.75
 63.37     561.58
 63.47     603.92
 63.57     583.29
 63.67     547.00
 63.77     617.00
 63.87     622.00
 63.97     615.17
 64.07     624.00
 64.17     767.00
 64.27     725.62
 64.37     811.36
 64.47     852.12
 64.57     972.90
 64.67    1011.00
 64.77    1035.00
 64.87    1045.00
 64.97     941.00
 65.07     906.87
 65.17     874.00
 65.27     795.64
 65.37     727.08
 65.47     659.00
 65.57     639.94
 65.67     625.62
 65.77     585.00
 65.87     626.80
 65.97     628.12
 66.07     550.67
 66.17     580.00
 66.27     520.00
 66.37     562.46
 66.47     510.00
 66.57     535.00
 66.67     567.00
 66.77     554.40
 66.87     578.00
 66.97     643.63
 67.07     592.85
 67.17     689.00
 67.27     698.00
 67.37     837.00
 67.47    1011.00
 67.57    1093.00
 67.67    1378.00
 67.77    1608.79
 67.87    1866.00
 67.97    2107.40
 68.07    2159.51
 68.17    2341.00
 68.27    2340.00
 68.37    2239.00
 68.47    1959.29
 68.57    1802.00
 68.67    1536.00
 68.77    1266.00
 68.87    1127.00
 68.97     934.00
 69.07     836.00
 69.17     731.00
 69.27     685.00
 69.37     581.35
 69.47     603.00
 69.57     591.00
 69.67     614.00
 69.77     604.00
 69.87     581.00
 69.97     550.00
 70.07     575.00
 70.17     567.00
 70.27     518.79
 70.37     572.00
 70.47     561.55
 70.57     579.00
 70.67     536.12
 70.77     568.00
 70.87     564.00
 70.97     598.00
 71.07     613.00
 71.17     678.00
 71.27     769.66
 71.37     846.00
 71.47    1011.59
 71.57    1071.00
 71.67    1282.00
 71.77    1386.00
 71.87    1512.00
 71.97    1746.00
 72.07    1836.59
 72.17    1924.00
 72.27    1852.00
 72.37    1786.00
 72.47    1641.00
 72.57    1429.14
 72.67    1230.00
 72.77    1045.00
 72.87    1005.00
 72.97     842.67
 73.07     801.00
 73.17     754.12
 73.27     712.00
 73.37     716.12
 73.47     622.00
 73.57     603.00
 73.67     623.27
 73.77     599.00
 73.87     583.00
 73.97     518.00
 74.07     601.00
 74.17     533.00
 74.27     601.54
 74.37     594.00
 74.47     563.00
 74.57     570.48
 74.67     688.00
 74.77     638.00
 74.87     653.00
 74.97     602.00
 75.07     641.00
 75.17     585.00
 75.27     507.58
 75.37     593.87
 75.47     578.00
 75.57     568.79
 75.67     539.00
 75.77     513.13
 75.87     596.00
 75.97     591.00
 76.07     611.00
 76.17     643.00
 76.27     630.00
 76.37     636.00
 76.47     727.00
 76.57     626.00
 76.67     691.00
 76.77     638.00
 76.87     664.98
 76.97     698.70
 77.07     632.00
 77.17     589.00
 77.27     568.83
 77.37     593.00
 77.47     596.23
 77.57     579.98
 77.67     526.43
 77.77     551.00
 77.87     550.41
 77.97     514.00
 78.07     522.00
 78.17     507.00
 78.27     495.67
 78.37     520.00
 78.47     550.66
 78.57     476.00
 78.67     525.43
 78.77     542.00
 78.87     483.66
 78.97     574.00
 79.07     570.00
 79.17     503.62
 79.27     512.00
 79.37     474.00
 79.47     519.00
 79.57     527.00
 79.67     529.00
 79.77     554.00
 79.87     486.37
 79.97     580.00
 80.07     554.37
 80.17     542.00
 80.27     502.43
 80.37     583.86
 80.47     540.00
 80.57     574.00
 80.67     587.37
 80.77     594.00
 80.87     614.00
 80.97     673.00
 81.07     679.00
 81.17     699.00
 81.27     699.47
 81.37     756.19
 81.47     740.00
 81.57     792.00
 81.67     717.00
 81.77     778.24
 81.87     751.83
 81.97     713.00
 82.07     702.00
 82.17     712.00
 82.27     630.23
 82.37     569.00
 82.47     598.00
 82.57     534.00
 82.67     565.00
 82.77     572.22
 82.87     566.00
 82.97     513.00
 83.07     513.38
 83.17     506.00
 83.27     573.56
 83.37     574.58
 83.47     522.00
 83.57     509.00
 83.67     478.00
 83.77     582.08
 83.87     524.00
 83.97     534.45
 84.07     599.27
 84.17     554.65
 84.27     516.87
 84.37     569.00
 84.47     597.57
 84.57     471.00
 84.67     568.68
 84.77     585.00
 84.87     536.00
 84.97     544.00
 85.07     525.00
 85.17     485.94
 85.27     471.58
 85.37     496.00
 85.47     508.00
 85.57     516.00
 85.67     552.23
 85.77     546.15
 85.87     521.16
 85.97     529.23
 86.07     545.00
 86.17     545.95
 86.27     472.99
 86.37     545.59
 86.47     539.00
 86.57     525.25
 86.67     506.00
 86.77     568.00
 86.87     535.00
 86.97     600.35
 87.07     581.00
 87.17     611.58
 87.27     673.00
 87.37     598.00
 87.47     620.44
 87.57     628.00
 87.67     573.81
 87.77     596.35
 87.87     595.99
 87.97     648.00
 88.07     577.01
 88.17     597.00
 88.27     574.00
 88.37     588.00
 88.47     557.38
 88.57     617.00
 88.67     540.00
 88.77     567.00
 88.87     577.95
 88.97     560.00
 89.07     600.00
 89.17     529.84
 89.27     624.00
 89.37     532.15
 89.47     587.00
 89.57     597.00
 89.67     597.00
 89.77     593.93
 89.87     606.30
 89.97     564.00
 90.07     574.00
 90.17     534.00
 90.27     555.00
 90.37     537.00
 90.47     527.00
 90.57     489.00
 90.67     542.00
 90.77     482.00
 90.87     537.00
 90.97     475.00
 91.07     544.04
 91.17     506.00
 91.27     502.00
 91.37     476.00
 91.47     502.00
 91.57     509.68
 91.67     515.00
 91.77     538.00
 91.87     572.48
 91.97     545.71
 92.07     495.00
 92.17     524.00
 92.27     605.80
 92.37     562.45
 92.47     584.00
 92.57     644.57
 92.67     610.00
 92.77     614.00
 92.87     694.00
 92.97     658.00
 93.07     685.00
 93.17     712.85
 93.27     735.00
 93.37     784.13
 93.47     719.00
 93.57     747.00
 93.67     803.13
 93.77     772.00
 93.87     763.00
 93.97     817.00
 94.07     816.40
 94.17     838.00
 94.27     859.00
 94.37     844.00
 94.47     801.48
 94.57     899.00
 94.67     916.00
 94.77     939.00
 94.87     920.00
 94.97     857.92
 95.07     904.00
 95.17     873.00
 95.27     818.00
 95.37     823.71
 95.47     774.00
 95.57     794.22
 95.67     756.73
 95.77     746.00
 95.87     720.00
 95.97     692.00
 96.07     651.23
 96.17     726.00
 96.27     717.86
 96.37     753.80
 96.47     774.00
 96.57     790.00
 96.67     793.00
 96.77     913.05
 96.87     943.00
 96.97    1096.67
 97.07    1145.73
 97.17    1151.06
 97.27    1241.00
 97.37    1300.00
 97.47    1430.00
 97.57    1374.00
 97.67    1428.00
 97.77    1421.00
 97.87    1392.00
 97.97    1308.61
 98.07    1331.16
 98.17    1248.00
 98.27    1155.00
 98.37    1126.00
 98.47    1098.00
 98.57    1059.88
 98.67     952.00
 98.77     916.05
 98.87     847.48
 98.97     898.00
 99.07     820.00
 99.17     822.27
 99.27     882.00
 99.37     884.00
 99.47     946.00
 99.57    1007.00
 99.67    1098.95
 99.77    1125.95
 99.87    1244.00
 99.97    1339.00
100.07    1370.89
100.17    1554.00
100.27    1715.56
100.37    1693.00
100.47    1863.96
100.57    1894.00
100.67    2023.00
100.77    2089.00
100.87    2025.96
100.97    1921.26
101.07    2035.00
101.17    1885.00
101.27    1823.00
101.37    1726.54
101.47    1835.00
101.57    1699.58
101.67    1533.00
101.77    1449.56
101.87    1472.00
101.97    1352.00
102.07    1322.00
102.17    1325.65
102.27    1281.40
102.37    1284.00
102.47    1154.00
102.57    1160.26
102.67    1146.00
102.77    1055.00
102.87    1058.00
102.97    1056.00
103.07     966.95
103.17     966.64
103.27     962.00
103.37     904.00
103.47     797.00
103.57     812.52
103.67     809.00
103.77     774.00
103.87     729.00
103.97     706.00
104.07     642.00
104.17     653.00
104.27     573.00
104.37     606.00
104.47     586.00
104.57     623.00
104.67     570.15
104.77     546.00
104.87     553.00
104.97     583.00
105.07     505.39
105.17     573.00
105.27     522.00
105.37     556.80
105.47     547.85
105.57     541.00
105.67     566.84
105.77     539.53
105.87     575.00
105.97     573.07
106.07     602.00
106.17     583.00
106.27     593.00
106.37     560.00
106.47     620.92
106.57     646.00
106.67     605.00
106.77     636.55
106.87     605.00
106.97     668.63
107.07     640.00
107.17     640.87
107.27     644.42
107.37     682.00
107.47     728.30
107.57     651.00
107.67     671.00
107.77     645.00
107.87     650.29
107.97     648.00
108.07     640.00
108.17     690.35
108.27     666.00
108.37     673.00
108.47     682.34
108.57     701.44
108.67     663.00
108.77     665.00
108.87     658.94
108.97     719.22
109.07     649.79
109.17     698.00
109.27     692.00
109.37     696.00
109.47     617.00
109.57     622.00
109.67     660.00
109.77     620.65
109.87     640.22
109.97     634.00
110.07     618.00
110.17     670.00
110.27     605.00
110.37     602.00
110.47     585.00
110.57     517.46
110.67     582.21
110.77     545.00
110.87     536.00
110.97     539.00
111.07     535.00
111.17     521.00
111.27     551.00
111.37     562.27
111.47     522.93
111.57     563.00
111.67     573.00
111.77     527.46
111.87     531.00
111.97     524.00
112.07     600.26
112.17     576.00
112.27     566.00
112.37     522.00
112.47     523.00
112.57     574.75
112.67     598.00
112.77     545.00
112.87     593.65
112.97     627.00
113.07     588.00
113.17     572.00
113.27     653.52
113.37     609.00
113.47     668.00
113.57     654.00
113.67     683.43
113.77     686.00
113.87     732.78
113.97     744.68
114.07     785.00
114.17     809.22
114.27     907.00
114.37     982.19
114.47    1010.00
114.57    1048.00
114.67    1193.00
114.77    1330.00
114.87    1460.32
114.97    1726.00
115.07    1894.00
115.17    2031.71
115.27    2281.08
115.37    2465.57
115.47    2842.00
115.57    3068.11
115.67    3551.00
115.77    3686.00
115.87    4027.00
115.97    4447.00
116.07    4914.00
116.17    5197.00
116.27    5691.62
116.37    5931.00
116.47    6312.16
116.57    6533.00
116.67    6642.00
116.77    6660.00
116.87    6785.00
116.97    6799.00
117.07    6717.00
117.17    6562.00
117.27    6337.00
117.37    6044.23
117.47    5837.16
117.57    5356.00
117.67    4963.00
117.77    4844.00
117.87    4449.01
117.97    4113.00
118.07    3673.00
118.17    3425.00
118.27    3102.00
118.37    2649.32
118.47    2482.00
118.57    2170.00
118.67    1999.21
118.77    1750.36
118.87    1542.00
118.97    1342.00
119.07    1213.00
119.17    1224.00
119.27    1062.00
119.37    1023.00
119.47     889.00
119.57     819.00
119.67     794.00
119.77     768.01
119.87     750.00
119.97     657.46
120.07     647.00
120.17     658.00
120.27     625.00
120.37     657.03
120.47     611.00
120.57     610.02
120.67     578.13
120.77     641.38
120.87     548.00
120.97     587.00
121.07     577.00
121.17     595.59
121.27     588.00
121.37     562.00
121.47     525.00
121.57     578.00
121.67     596.42
121.77     625.78
121.87     540.01
121.97     559.00
122.07     579.69
122.17     650.00
122.27     642.00
122.37     570.90
122.47     619.00
122.57     629.19
122.67     635.00
122.77     636.00
122.87     642.92
122.97     599.00
123.07     624.96
123.17     581.79
123.27     615.78
123.37     681.00
123.47     646.00
123.57     682.79
123.67     602.00
123.77     602.00
123.87     650.30
123.97     644.00
124.07     634.00
124.17     590.00
124.27     575.67
124.37     553.63
124.47     558.84
124.57     623.00
124.67     581.00
124.77     576.32
124.87     590.74
124.97     573.00
