  9.97     624.00
 10.07     590.90
 10.17     598.00
 10.27     584.00
 10.37     578.00
 10.47     541.92
 10.57     551.91
 10.67     591.70
 10.77     629.00
 10.87     645.00
 10.97     631.00
 11.07     630.89
 11.17     574.66
 11.27     571.18
 11.37     528.61
 11.47     590.00
 11.57     602.00
 11.67     635.00
 11.77     618.04
 11.87     634.00
 11.97     687.10
 12.07     685.79
 12.17     722.46
 12.27     765.92
 12.37     673.31
 12.47     708.00
 12.57     666.95
 12.67     611.08
 12.77     589.00
 12.87     596.00
 12.97     566.00
 13.07     595.61
 13.17     563.00
 13.27     571.00
 13.37     591.67
 13.47     550.00
 13.57     608.56
 13.67     539.00
 13.77     570.84
 13.87     574.00
 13.97     580.00
 14.07     570.00
 14.17     545.88
 14.27     587.64
 14.37     542.00
 14.47     631.55
 14.57     546.00
 14.67     585.47
 14.77     612.94
 14.87     579.02
 14.97     558.00
 15.07     535.00
 15.17     532.00
 15.27     578.00
 15.37     568.46
 15.47     627.22
 15.57     593.00
 15.67     595.02
 15.77     549.00
 15.87     567.00
 15.97     624.28
 16.07     624.29
 16.17     604.32
 16.27     571.00
 16.37     550.00
 16.47     602.00
 16.57     603.00
 16.67     554.00
 16.77     599.86
 16.87     555.00
 16.97     567.00
 17.07     589.00
 17.17     558.00
 17.27     554.00
 17.37     630.38
 17.47     542.00
 17.57     540.00
 17.67     627.26
 17.77     572.00
 17.87     625.27
 17.97     558.00
 18.07     568.00
 18.17     553.00
 18.27     574.00
 18.37     555.00
 18.47     589.29
 18.57     549.00
 18.67     549.98
 18.77     565.00
 18.87     595.00
 18.97     535.00
 19.07     568.00
 19.17     525.00
 19.27     580.79
 19.37     547.00
 19.47     576.00
 19.57     542.00
 19.67     535.00
 19.77     546.44
 19.87     563.00
 19.97     561.00
 20.07     570.00
 20.17     607.38
 20.27     548.00
 20.37     539.11
 20.47     523.00
 20.57     554.00
 20.67     549.00
 20.77     565.00
 20.87     559.00
 20.97     601.58
 21.07     581.00
 21.17     564.11
 21.27     567.89
 21.37     571.00
 21.47     528.00
 21.57     542.00
 21.67     530.00
 21.77     519.05
 21.87     560.00
 21.97     587.00
 22.07     562.00
 22.17     534.91
 22.27     545.18
 22.37     512.00
 22.47     568.21
 22.57     531.00
 22.67     552.00
 22.77     557.00
 22.87     551.27
 22.97     584.00
 23.07     552.00
 23.17     568.00
 23.27     581.00
 23.37     585.51
 23.47     586.00
 23.57     532.00
 23.67     566.00
 23.77     557.39
 23.87     549.72
 23.97     616.00
 24.07     528.22
 24.17     580.00
 24.27     624.00
 24.37     643.00
 24.47     652.00
 24.57     639.63
 24.67     631.00
 24.77     656.00
 24.87     681.00
 24.97     700.46
 25.07     633.07
 25.17     614.00
 25.27     621.00
 25.37     577.00
 25.47     599.00
 25.57     592.00
 25.67     515.81
 25.77     538.06
 25.87     590.00
 25.97     574.00
 26.07     588.76
 26.17     619.00
 26.27     597.00
 26.37     569.56
 26.47     546.00
 26.57     591.00
 26.67     604.00
 26.77     515.62
 26.87     600.00
 26.97     629.00
 27.07     552.26
 27.17     518.44
 27.27     601.00
 27.37     612.00
 27.47     552.22
 27.57     631.00
 27.67     629.00
 27.77     641.23
 27.87     645.00
 27.97     631.82
 28.07     768.00
 28.17     791.00
 28.27     902.00
 28.37     927.79
 28.47     915.00
 28.57     837.00
 28.67     782.22
 28.77     788.00
 28.87     857.00
 28.97     910.00
 29.07     855.21
 29.17     825.00
 29.27     733.00
 29.37     722.29
 29.47     621.00
 29.57     586.00
 29.67     608.00
 29.77     519.32
 29.87     592.52
 29.97     563.19
 30.07     605.03
 30.17     595.01
 30.27     607.00
 30.37     641.00
 30.47     559.54
 30.57     630.00
 30.67     576.50
 30.77     613.00
 30.87     650.00
 30.97     671.00
 31.07     678.00
 31.17     628.00
 31.27     568.11
 31.37     625.00
 31.47     611.35
 31.57     609.00
 31.67     549.22
 31.77     524.00
 31.87     555.00
 31.97     532.21
 32.07     565.38
 32.17     550.87
 32.27     584.39
 32.37     589.00
 32.47     522.00
 32.57     498.00
 32.67     546.86
 32.77     550.41
 32.87     598.45
 32.97     559.00
 33.07     526.71
 33.17     587.00
 33.27     579.00
 33.37     578.00
 33.47     548.00
 33.57     605.00
 33.67     639.00
 33.77     637.00
 33.87     725.00
 33.97     866.00
 34.07    1002.00
 34.17     980.67
 34.27     975.00
 34.37     920.00
 34.47     773.00
 34.57     752.36
 34.67     598.00
 34.77     570.48
 34.87     528.19
 34.97     599.32
 35.07     530.93
 35.17     559.00
 35.27     554.87
 35.37     534.00
 35.47     553.00
 35.57     510.97
 35.67     519.00
 35.77     476.00
 35.87     525.00
 35.97     529.68
 36.07     476.00
 36.17     536.00
 36.27     497.00
 36.37     508.62
 36.47     492.81
 36.57     480.66
 36.67     495.00
 36.77     523.00
 36.87     522.33
 36.97     496.11
 37.07     560.09
 37.17     509.00
 37.27     516.00
 37.37     517.00
 37.47     532.00
 37.57     528.61
 37.67     512.00
 37.77     496.00
 37.87     491.00
 37.97     537.61
 38.07     537.00
 38.17     522.00
 38.27     486.10
 38.37     477.63
 38.47     510.00
 38.57     482.00
 38.67     485.92
 38.77     532.00
 38.87     472.00
 38.97     524.89
 39.07     515.68
 39.17     504.00
 39.27     529.11
 39.37     472.00
 39.47     516.58
 39.57     547.10
 39.67     515.00
 39.77     492.00
 39.87     519.00
 39.97     524.00
 40.07     521.39
 40.17     497.00
 40.27     514.76
 40.37     502.00
 40.47     475.00
 40.57     484.52
 40.67     550.20
 40.77     498.00
 40.87     464.00
 40.97     461.05
 41.07     536.00
 41.17     517.98
 41.27     501.00
 41.37     478.00
 41.47     500.00
 41.57     498.00
 41.67     522.00
 41.77     556.65
 41.87     550.59
 41.97     506.05
 42.07     480.00
 42.17     487.00
 42.27     498.00
 42.37     508.00
 42.47     513.03
 42.57     566.55
 42.67     568.60
 42.77     615.00
 42.87     598.00
 42.97     576.00
 43.07     555.00
 43.17     523.00
 43.27     512.00
 43.37     500.93
 43.47     555.88
 43.57     486.00
 43.67     504.00
 43.77     547.51
 43.87     516.00
 43.97     480.00
 44.07     529.00
 44.17     494.53
 44.27     490.60
 44.37     525.43
 44.47     508.00
 44.57     505.00
 44.67     531.80
 44.77     463.44
 44.87     457.52
 44.97     488.00
 45.07     514.00
 45.17     479.00
 45.27     530.00
 45.37     513.04
 45.47     539.00
 45.57     544.00
 45.67     518.38
 45.77     516.00
 45.87     499.00
 45.97     474.83
 46.07     493.00
 46.17     485.00
 46.27     524.88
 46.37     508.00
 46.47     484.00
 46.57     541.80
 46.67     502.00
 46.77     483.10
 46.87     516.00
 46.97     536.00
 47.07     520.00
 47.17     493.72
 47.27     539.00
 47.37     534.00
 47.47     557.00
 47.57     483.09
 47.67     558.00
 47.77     553.00
 47.87     557.72
 47.97     545.00
 48.07     615.00
 48.17     543.58
 48.27     534.37
 48.37     569.00
 48.47     556.30
 48.57     518.00
 48.67     573.37
 48.77     560.92
 48.87     571.00
 48.97     503.76
 49.07     537.00
 49.17     547.00
 49.27     604.75
 49.37     592.89
 49.47     576.90
 49.57     620.00
 49.67     670.00
 49.77     802.00
 49.87     980.00
 49.97    1315.86
 50.07    1638.00
 50.17    1984.00
 50.27    2244.00
 50.37    2291.00
 50.47    2230.18
 50.57    1964.06
 50.67    1573.00
 50.77    1312.18
 50.87     972.00
 50.97     853.00
 51.07     680.00
 51.17     676.00
 51.27     610.30
 51.37     629.49
 51.47     634.00
 51.57     615.00
 51.67     552.89
 51.77     522.34
 51.87     583.00
 51.97     564.00
 52.07     571.00
 52.17     606.00
 52.27     584.00
 52.37     597.00
 52.47     593.00
 52.57     533.00
 52.67     530.00
 52.77     613.39
 52.87     641.00
 52.97     653.00
 53.07     724.02
 53.17     725.00
 53.27     745.00
 53.37     935.00
 53.47    1005.67
 53.57    1047.00
 53.67    1183.00
 53.77    1129.54
 53.87    1081.00
 53.97    1058.00
 54.07     975.00
 54.17     846.00
 54.27     726.53
 54.37     714.63
 54.47     611.00
 54.57     627.04
 54.67     590.00
 54.77     546.00
 54.87     606.33
 54.97     604.00
 55.07     506.87
 55.17     546.00
 55.27     595.00
 55.37     592.58
 55.47     515.06
 55.57     607.61
 55.67     539.00
 55.77     607.00
 55.87     631.67
 55.97     620.34
 56.07     686.00
 56.17     729.94
 56.27     735.00
 56.37     907.93
 56.47     987.00
 56.57    1244.00
 56.67    1557.00
 56.77    1968.94
 56.87    2177.00
 56.97    2358.00
 57.07    2671.00
 57.17    2426.78
 57.27    2286.42
 57.37    1982.00
 57.47    1579.43
 57.57    1379.00
 57.67    1098.00
 57.77     925.00
 57.87     820.00
 57.97     805.08
 58.07     758.00
 58.17     689.00
 58.27     638.62
 58.37     729.00
 58.47     724.15
 58.57     811.67
 58.67     862.00
 58.77     941.00
 58.87    1028.00
 58.97    1147.00
 59.07    1241.00
 59.17    1310.00
 59.27    1238.66
 59.37    1380.00
 59.47    1297.00
 59.57    1231.00
 59.67    1129.28
 59.77    1162.00
 59.87    1117.00
 59.97    1221.00
 60.07    1330.00
 60.17    1304.01
 60.27    1545.00
 60.37    1509.95
 60.47    1536.00
 60.57    1408.70
 60.67    1334.22
 60.77    1222.00
 60.87    1131.00
 60.97     940.00
 61.07     830.00
 61.17     737.00
 61.27     706.00
 61.37     676.00
 61.47     742.00
 61.57     659.00
 61.67     805.78
 61.77     863.45
 61.87     867.00
 61.97     982.00
 62.07    1095.89
 62.17    1227.00
 62.27    1287.00
 62.37    1359.00
 62.47    1330.00
 62.57    1253.00
 62.67    1118.36
 62.77    1017.00
 62.87     882.00
 62.97     840.00
 63.07     729.00
 63.17     656.00
 63.27     601.57
 63.37     612.00
 63.47     601.00
 63.57     566.00
 63.67     595.00
 63.77     559.00
 63.87     598.00
 63.97     662.67
 64.07     668.00
 64.17     646.00
 64.27     690.00
 64.37     823.42
 64.47     863.00
 64.57     923.00
 64.67     991.00
 64.77     957.12
 64.87    1039.00
 64.97    1059.00
 65.07     985.00
 65.17     892.00
 65.27     863.00
 65.37     797.00
 65.47     779.00
 65.57     664.00
 65.67     681.95
 65.77     627.00
 65.87     613.00
 65.97     619.55
 66.07     562.00
 66.17     567.78
 66.27     542.00
 66.37     535.00
 66.47     551.00
 66.57     575.77
 66.67     590.00
 66.77     587.00
 66.87     628.13
 66.97     615.00
 67.07     669.15
 67.17     650.00
 67.27     701.00
 67.37     714.00
 67.47     784.00
 67.57     908.00
 67.67    1088.00
 67.77    1287.00
 67.87    1560.00
 67.97    1692.00
 68.07    2001.73
 68.17    2102.00
 68.27    2199.87
 68.37    2216.03
 68.47    2319.00
 68.57    2025.00
 68.67    1960.00
 68.77    1687.00
 68.87    1405.00
 68.97    1183.00
 69.07     987.00
 69.17     917.71
 69.27     790.00
 69.37     716.00
 69.47     683.31
 69.57     616.09
 69.67     620.00
 69.77     645.00
 69.87     626.00
 69.97     593.00
 70.07     582.00
 70.17     583.00
 70.27     592.00
 70.37     532.80
 70.47     566.55
 70.57     580.00
 70.67     538.00
 70.77     584.00
 70.87     610.00
 70.97     589.17
 71.07     608.27
 71.17     699.67
 71.27     734.01
 71.37     743.00
 71.47     847.16
 71.57     956.23
 71.67    1087.00
 71.77    1150.20
 71.87    1365.22
 71.97    1566.44
 72.07    1696.80
 72.17    1742.00
 72.27    1801.00
 72.37    1795.00
 72.47    1726.00
 72.57    1635.66
 72.67    1587.00
 72.77    1437.00
 72.87    1211.00
 72.97    1101.00
 73.07     974.00
 73.17     776.73
 73.27     777.00
 73.37     765.00
 73.47     582.84
 73.57     666.00
 73.67     634.00
 73.77     623.39
 73.87     630.00
 73.97     584.00
 74.07     617.00
 74.17     571.41
 74.27     560.67
 74.37     556.48
 74.47     605.00
 74.57     574.47
 74.67     580.00
 74.77     589.90
 74.87     625.00
 74.97     547.83
 75.07     620.00
 75.17     639.00
 75.27     652.00
 75.37     541.65
 75.47     601.00
 75.57     550.37
 75.67     618.00
 75.77     498.81
 75.87     547.00
 75.97     535.10
 76.07     631.00
 76.17     622.57
 76.27     652.00
 76.37     619.00
 76.47     644.11
 76.57     679.00
 76.67     705.00
 76.77     679.71
 76.87     659.00
 76.97     635.48
 77.07     686.22
 77.17     603.15
 77.27     677.14
 77.37     638.96
 77.47     540.00
 77.57     602.00
 77.67     552.00
 77.77     538.00
 77.87     481.00
 77.97     535.00
 78.07     488.00
 78.17     518.82
 78.27     514.00
 78.37     519.00
 78.47     495.00
 78.57     560.59
 78.67     485.00
 78.77     505.00
 78.87     497.53
 78.97     540.78
 79.07     529.29
 79.17     522.00
 79.27     499.00
 79.37     538.12
 79.47     489.00
 79.57     515.00
 79.67     517.00
 79.77     561.00
 79.87     524.28
 79.97     531.00
 80.07     507.00
 80.17     522.00
 80.27     550.00
 80.37     539.00
 80.47     598.48
 80.57     522.65
 80.67     549.00
 80.77     615.05
 80.87     596.00
 80.97     610.00
 81.07     646.00
 81.17     669.00
 81.27     643.00
 81.37     633.00
 81.47     782.04
 81.57     704.00
 81.67     692.00
 81.77     780.50
 81.87     770.32
 81.97     779.00
 82.07     748.00
 82.17     668.00
 82.27     684.00
 82.37     627.00
 82.47     657.00
 82.57     619.00
 82.67     658.61
 82.77     573.00
 82.87     568.39
 82.97     571.00
 83.07     587.71
 83.17     596.04
 83.27     572.00
 83.37     529.00
 83.47     526.00
 83.57     543.00
 83.67     550.79
 83.77     583.00
 83.87     536.00
 83.97     569.00
 84.07     574.27
 84.17     524.00
 84.27     541.00
 84.37     544.00
 84.47     573.00
 84.57     499.00
 84.67     534.01
 84.77     475.00
 84.87     556.00
 84.97     510.00
 85.07     506.82
 85.17     521.00
 85.27     525.49
 85.37     538.00
 85.47     480.00
 85.57     523.00
 85.67     496.00
 85.77     486.00
 85.87     516.86
 85.97     493.00
 86.07     490.00
 86.17     524.00
 86.27     524.81
 86.37     456.00
 86.47     509.00
 86.57     535.00
 86.67     521.00
 86.77     483.97
 86.87     531.25
 86.97     584.80
 87.07     549.72
 87.17     580.00
 87.27     571.00
 87.37     545.36
 87.47     556.00
 87.57     617.22
 87.67     608.00
 87.77     645.12
 87.87     661.00
 87.97     625.00
 88.07     606.00
 88.17     641.00
 88.27     585.00
 88.37     604.17
 88.47     604.67
 88.57     576.00
 88.67     554.00
 88.77     608.04
 88.87     579.13
 88.97     537.34
 89.07     591.07
 89.17     568.00
 89.27     585.00
 89.37     563.00
 89.47     566.00
 89.57     573.17
 89.67     614.00
 89.77     603.00
 89.87     596.00
 89.97     567.00
 90.07     625.80
 90.17     562.00
 90.27     578.92
 90.37     521.00
 90.47     495.00
 90.57     560.65
 90.67     546.78
 90.77     490.38
 90.87     561.54
 90.97     488.00
 91.07     523.24
 91.17     522.00
 91.27     542.08
 91.37     560.09
 91.47     477.06
 91.57     473.57
 91.67     512.77
 91.77     508.00
 91.87     517.00
 91.97     569.12
 92.07     477.93
 92.17     519.00
 92.27     549.00
 92.37     543.00
 92.47     511.00
 92.57     539.83
 92.67     549.27
 92.77     543.90
 92.87     594.00
 92.97     611.00
 93.07     663.00
 93.17     652.00
 93.27     608.00
 93.37     707.33
 93.47     721.00
 93.57     722.08
 93.67     754.00
 93.77     772.00
 93.87     764.19
 93.97     825.00
 94.07     736.25
 94.17     859.00
 94.27     821.00
 94.37     829.00
 94.47     781.72
 94.57     875.00
 94.67     887.00
 94.77     869.00
 94.87     875.93
 94.97     895.00
 95.07     845.51
 95.17     907.00
 95.27     884.00
 95.37     942.00
 95.47     881.00
 95.57     820.00
 95.67     823.00
 95.77     744.00
 95.87     760.00
 95.97     770.00
 96.07     661.01
 96.17     701.75
 96.27     686.38
 96.37     720.00
 96.47     692.00
 96.57     691.35
 96.67     796.00
 96.77     805.00
 96.87     793.00
 96.97     906.18
 97.07    1019.46
 97.17     992.80
 97.27    1085.00
 97.37    1102.00
 97.47    1282.79
 97.57    1352.00
 97.67    1341.15
 97.77    1432.30
 97.87    1419.00
 97.97    1471.00
 98.07    1342.59
 98.17    1460.32
 98.27    1345.99
 98.37    1326.00
 98.47    1233.66
 98.57    1136.57
 98.67    1140.00
 98.77    1030.00
 98.87     972.00
 98.97     935.55
 99.07     994.58
 99.17     876.00
 99.27     884.00
 99.37     857.00
 99.47     897.00
 99.57     922.00
 99.67     887.00
 99.77    1047.33
 99.87    1080.00
 99.97    1139.00
100.07    1235.00
100.17    1321.38
100.27    1390.00
100.37    1497.00
100.47    1679.00
100.57    1689.00
100.67    1843.00
100.77    1766.00
100.87    1851.81
100.97    1854.00
101.07    1975.00
101.17    2004.00
101.27    1966.00
101.37    1815.81
101.47    1866.00
101.57    1787.03
101.67    1745.00
101.77    1731.00
101.87    1641.33
101.97    1530.77
102.07    1497.00
102.17    1449.00
102.27    1432.04
102.37    1340.28
102.47    1264.00
102.57    1285.76
102.67    1171.94
102.77    1193.82
102.87    1186.05
102.97    1184.00
103.07    1131.00
103.17     992.00
103.27     990.04
103.37     964.00
103.47     909.00
103.57     919.00
103.67     916.00
103.77     862.00
103.87     779.00
103.97     788.00
104.07     721.61
104.17     706.00
104.27     715.00
104.37     630.00
104.47     614.00
104.57     610.00
104.67     565.42
104.77     604.88
104.87     563.00
104.97     555.00
105.07     592.77
105.17     589.00
105.27     511.00
105.37     540.00
105.47     475.14
105.57     507.62
105.67     531.00
105.77     516.00
105.87     494.54
105.97     538.00
106.07     537.00
106.17     539.00
106.27     527.00
106.37     581.00
106.47     586.00
106.57     595.00
106.67     613.12
106.77     572.37
106.87     599.38
106.97     609.00
107.07     614.00
107.17     639.02
107.27     649.00
107.37     716.36
107.47     652.00
107.57     646.15
107.67     668.00
107.77     700.90
107.87     692.00
107.97     760.61
108.07     760.69
108.17     639.00
108.27     714.18
108.37     657.00
108.47     678.00
108.57     694.00
108.67     698.00
108.77     677.00
108.87     688.00
108.97     656.80
109.07     652.00
109.17     645.71
109.27     756.00
109.37     709.00
109.47     630.00
109.57     730.53
109.67     675.34
109.77     650.21
109.87     712.00
109.97     663.33
110.07     650.00
110.17     671.00
110.27     673.94
110.37     673.00
110.47     580.79
110.57     599.00
110.67     580.00
110.77     607.00
110.87     576.00
110.97     528.76
111.07     566.95
111.17     550.04
111.27     588.00
111.37     567.00
111.47     485.92
111.57     540.00
111.67     579.00
111.77     505.82
111.87     557.00
111.97     483.41
112.07     520.00
112.17     552.00
112.27     563.00
112.37     507.67
112.47     518.00
112.57     536.00
112.67     577.00
112.77     528.21
112.87     556.44
112.97     553.08
113.07     557.84
113.17     583.00
113.27     591.00
113.37     607.00
113.47     625.00
113.57     610.00
113.67     609.00
113.77     597.00
113.87     623.99
113.97     625.47
114.07     694.01
114.17     757.00
114.27     720.07
114.37     729.88
114.47     847.78
114.57     857.00
114.67     929.00
114.77    1028.00
114.87    1051.15
114.97    1201.95
115.07    1372.00
115.17    1615.00
115.27    1729.63
115.37    1917.38
115.47    2092.13
115.57    2491.00
115.67    2695.00
115.77    2995.51
115.87    3380.00
115.97    3513.55
116.07    3953.77
116.17    4308.00
116.27    4688.00
116.37    5075.00
116.47    5586.00
116.57    5802.00
116.67    6095.00
116.77    6219.00
116.87    6596.00
116.97    6862.00
117.07    6922.60
117.17    7040.18
117.27    6879.00
117.37    6708.30
117.47    6798.00
117.57    6390.00
117.67    6031.00
117.77    5689.00
117.87    5495.00
117.97    5092.00
118.07    4686.00
118.17    4512.00
118.27    4065.59
118.37    3733.00
118.47    3428.80
118.57    3001.34
118.67    2828.05
118.77    2466.00
118.87    2181.00
118.97    2033.00
119.07    1869.90
119.17    1676.00
119.27    1518.00
119.37    1376.27
119.47    1290.81
119.57    1113.00
119.67    1142.51
119.77     934.98
119.87     944.00
119.97     857.96
120.07     879.00
120.17     761.94
120.27     716.43
120.37     729.00
120.47     689.47
120.57     661.00
120.67     673.00
120.77     617.00
120.87     594.00
120.97     679.70
121.07     576.00
121.17     566.00
121.27     567.91
121.37     591.00
121.47     651.00
121.57     604.00
121.67     583.42
121.77     559.00
121.87     556.00
121.97     581.00
122.07     593.52
122.17     584.00
122.27     579.11
122.37     577.00
122.47     651.00
122.57     628.00
122.67     629.03
122.77     627.00
122.87     651.82
122.97     625.90
123.07     651.00
123.17     680.00
123.27     614.00
123.37     686.18
123.47     685.51
123.57     661.00
123.67     656.00
123.77     605.51
123.87     657.00
123.97     631.00
124.07     680.22
124.17     642.00
124.27     604.00
124.37     689.00
124.47     640.00
124.57     572.00
124.67     571.81
124.77     611.00
124.87     627.00
124.97     621.43
