  9.97     605.14
 10.07     534.00
 10.17     573.00
 10.27     624.00
 10.37     608.00
 10.47     607.58
 10.57     629.00
 10.67     603.30
 10.77     592.00
 10.87     583.00
 10.97     549.77
 11.07     600.00
 11.17     559.63
 11.27     597.00
 11.37     585.00
 11.47     576.43
 11.57     605.00
 11.67     630.47
 11.77     622.00
 11.87     597.73
 11.97     670.00
 12.07     634.13
 12.17     678.00
 12.27     659.00
 12.37     629.00
 12.47     656.42
 12.57     558.57
 12.67     579.00
 12.77     626.87
 12.87     557.00
 12.97     579.00
 13.07     531.59
 13.17     551.00
 13.27     532.00
 13.37     589.00
 13.47     574.09
 13.57     579.00
 13.67     582.96
 13.77     558.37
 13.87     561.00
 13.97     520.00
 14.07     615.87
 14.17     583.00
 14.27     589.78
 14.37     565.00
 14.47     606.87
 14.57     550.07
 14.67     577.79
 14.77     535.00
 14.87     537.52
 14.97     534.00
 15.07     609.22
 15.17     559.00
 15.27     532.21
 15.37     550.00
 15.47     579.00
 15.57     572.00
 15.67     512.88
 15.77     569.63
 15.87     542.11
 15.97     539.00
 16.07     561.00
 16.17     508.00
 16.27     512.00
 16.37     559.00
 16.47     582.00
 16.57     549.00
 16.67     560.00
 16.77     563.98
 16.87     564.14
 16.97     568.23
 17.07     584.00
 17.17     545.00
 17.27     577.19
 17.37     549.00
 17.47     548.00
 17.57     565.00
 17.67     573.19
 17.77     534.00
 17.87     556.00
 17.97     584.00
 18.07     603.00
 18.17     561.00
 18.27     585.00
 18.37     594.36
 18.47     582.38
 18.57     533.00
 18.67     580.25
 18.77     552.00
 18.87     557.00
 18.97     540.00
 19.07     537.36
 19.17     597.58
 19.27     543.00
 19.37     550.76
 19.47     551.00
 19.57     532.00
 19.67     596.00
 19.77     561.90
 19.87     557.85
 19.97     506.97
 20.07     536.00
 20.17     528.00
 20.27     537.00
 20.37     508.00
 20.47     527.51
 20.57     591.00
 20.67     564.42
 20.77     583.08
 20.87     530.12
 20.97     521.00
 21.07     531.00
 21.17     528.00
 21.27     538.97
 21.37     565.00
 21.47     553.00
 21.57     595.94
 21.67     549.00
 21.77     512.00
 21.87     544.00
 21.97     567.74
 22.07     511.00
 22.17     560.21
 22.27     543.00
 22.37     562.35
 22.47     570.23
 22.57     568.00
 22.67     552.57
 22.77     496.55
 22.87     583.00
 22.97     566.00
 23.07     522.00
 23.17     540.00
 23.27     556.00
 23.37     530.71
 23.47     511.39
 23.57     536.16
 23.67     565.30
 23.77     545.00
 23.87     526.00
 23.97     546.32
 24.07     569.00
 24.17     528.00
 24.27     618.00
 24.37     516.79
 24.47     587.00
 24.57     576.11
 24.67     638.00
 24.77     626.45
 24.87     644.44
 24.97     656.00
 25.07     587.00
 25.17     562.00
 25.27     562.49
 25.37     532.20
 25.47     563.00
 25.57     535.00
 25.67     515.43
 25.77     542.24
 25.87     545.00
 25.97     551.00
 26.07     516.99
 26.17     539.33
 26.27     522.00
 26.37     552.00
 26.47     565.00
 26.57     553.00
 26.67     542.00
 26.77     545.89
 26.87     540.93
 26.97     565.00
 27.07     521.00
 27.17     511.00
 27.27     544.00
 27.37     542.00
 27.47     549.00
 27.57     582.78
 27.67     594.15
 27.77     593.00
 27.87     620.00
 27.97     663.00
 28.07     790.14
 28.17     857.00
 28.27     989.41
 28.37     970.00
 28.47     768.81
 28.57     688.00
 28.67     687.00
 28.77     778.00
 28.87     848.91
 28.97     757.00
 29.07     777.00
 29.17     721.00
 29.27     600.57
 29.37     586.00
 29.47     610.00
 29.57     564.00
 29.67     574.41
 29.77     544.50
 29.87     553.31
 29.97     518.25
 30.07     543.00
 30.17     532.00
 30.27     557.00
 30.37     567.00
 30.47     542.00
 30.57     548.00
 30.67     543.00
 30.77     577.00
 30.87     635.00
 30.97     669.00
 31.07     590.00
 31.17     591.00
 31.27     572.89
 31.37     544.00
 31.47     537.00
 31.57     533.15
 31.67     575.14
 31.77     553.00
 31.87     559.00
 31.97     565.16
 32.07     542.00
 32.17     506.00
 32.27     519.47
 32.37     516.48
 32.47     527.00
 32.57     501.09
 32.67     584.00
 32.77     542.00
 32.87     577.00
 32.97     522.00
 33.07     508.06
 33.17     594.00
 33.27     541.74
 33.37     560.00
 33.47     582.00
 33.57     605.00
 33.67     624.00
 33.77     753.00
 33.87     815.02
 33.97    1026.00
 34.07    1026.00
 34.17    1001.03
 34.27     867.23
 34.37     777.00
 34.47     648.00
 34.57     609.00
 34.67     597.76
 34.77     543.00
 34.87     506.71
 34.97     530.00
 35.07     563.00
 35.17     504.00
 35.27     537.00
 35.37     538.00
 35.47     517.00
 35.57     502.71
 35.67     527.00
 35.77     539.00
 35.87     505.00
 35.97     516.72
 36.07     496.79
 36.17     517.00
 36.27     494.99
 36.37     506.04
 36.47     488.00
 36.57     541.00
 36.67     536.00
 36.77     490.07
 36.87     491.38
 36.97     519.00
 37.07     524.55
 37.17     471.20
 37.27     494.00
 37.37     521.00
 37.47     496.00
 37.57     487.83
 37.67     481.00
 37.77     522.00
 37.87     545.00
 37.97     469.00
 38.07     535.16
 38.17     518.33
 38.27     495.85
 38.37     466.00
 38.47     492.00
 38.57     510.70
 38.67     480.00
 38.77     508.00
 38.87     553.00
 38.97     466.90
 39.07     506.00
 39.17     473.00
 39.27     491.00
 39.37     526.00
 39.47     518.36
 39.57     499.00
 39.67     552.24
 39.77     513.00
 39.87     465.00
 39.97     546.00
 40.07     490.67
 40.17     509.00
 40.27     510.00
 40.37     531.34
 40.47     544.47
 40.57     509.00
 40.67     504.75
 40.77     540.83
 40.87     546.20
 40.97     507.00
 41.07     487.00
 41.17     498.00
 41.27     486.00
 41.37     544.00
 41.47     512.00
 41.57     547.02
 41.67     496.00
 41.77     472.00
 41.87     470.00
 41.97     532.80
 42.07     495.17
 42.17     520.00
 42.27     493.76
 42.37     551.85
 42.47     595.00
 42.57     610.00
 42.67     653.92
 42.77     589.00
 42.87     588.00
 42.97     550.78
 43.07     552.00
 43.17     492.12
 43.27     477.39
 43.37     508.10
 43.47     492.00
 43.57     501.00
 43.67     499.10
 43.77     498.00
 43.87     537.06
 43.97     477.76
 44.07     504.00
 44.17     542.54
 44.27     471.95
 44.37     485.00
 44.47     523.56
 44.57     489.05
 44.67     527.00
 44.77     491.00
 44.87     505.24
 44.97     529.00
 45.07     538.40
 45.17     552.76
 45.27     535.00
 45.37     521.00
 45.47     485.00
 45.57     520.00
 45.67     469.29
 45.77     543.55
 45.87     477.85
 45.97     536.00
 46.07     498.00
 46.17     496.00
 46.27     495.00
 46.37     509.00
 46.47     500.00
 46.57     498.00
 46.67     511.00
 46.77     548.91
 46.87     520.20
 46.97     475.00
 47.07     512.99
 47.17     544.00
 47.27     549.00
 47.37     540.97
 47.47     541.24
 47.57     560.00
 47.67     602.47
 47.77     625.00
 47.87     606.00
 47.97     588.00
 48.07     583.17
 48.17     569.00
 48.27     581.00
 48.37     510.00
 48.47     519.00
 48.57     560.00
 48.67     527.98
 48.77     536.00
 48.87     512.55
 48.97     495.00
 49.07     533.00
 49.17     599.00
 49.27     601.59
 49.37     664.00
 49.47     692.00
 49.57     829.00
 49.67     954.00
 49.77    1069.29
 49.87    1450.10
 49.97    1847.00
 50.07    2270.00
 50.17    2598.00
 50.27    2475.00
 50.37    2325.00
 50.47    1868.00
 50.57    1462.96
 50.67    1104.95
 50.77     819.95
 50.87     712.44
 50.97     706.68
 51.07     635.00
 51.17     573.38
 51.27     637.00
 51.37     619.20
 51.47     525.94
 51.57     511.62
 51.67     568.00
 51.77     583.00
 51.87     568.00
 51.97     512.43
 52.07     527.46
 52.17     547.17
 52.27     578.50
 52.37     594.00
 52.47     559.45
 52.57     555.77
 52.67     538.28
 52.77     631.21
 52.87     658.00
 52.97     742.00
 53.07     805.00
 53.17     866.00
 53.27     990.00
 53.37    1177.00
 53.47    1193.00
 53.57    1168.00
 53.67    1174.33
 53.77    1006.48
 53.87     849.00
 53.97     725.41
 54.07     648.00
 54.17     649.00
 54.27     590.00
 54.37     573.00
 54.47     565.00
 54.57     561.00
 54.67     566.00
 54.77     532.00
 54.87     567.00
 54.97     546.00
 55.07     552.00
 55.17     575.00
 55.27     553.00
 55.37     517.67
 55.47     578.00
 55.57     569.00
 55.67     593.00
 55.77     577.00
 55.87     570.00
 55.97     601.00
 56.07     654.00
 56.17     708.00
 56.27     857.00
 56.37    1163.63
 56.47    1506.14
 56.57    1822.31
 56.67    2166.00
 56.77    2490.00
 56.87    2616.00
 56.97    2579.00
 57.07    2329.00
 57.17    2042.00
 57.27    1568.40
 57.37    1261.60
 57.47    1059.00
 57.57     840.94
 57.67     806.00
 57.77     745.00
 57.87     698.00
 57.97     674.00
 58.07     710.00
 58.17     706.00
 58.27     727.00
 58.37     878.97
 58.47     943.00
 58.57    1084.00
 58.67    1248.00
 58.77    1330.00
 58.87    1526.00
 58.97    1538.00
 59.07    1525.86
 59.17    1587.00
 59.27    1399.00
 59.37    1310.35
 59.47    1289.00
 59.57    1135.64
 59.67    1088.00
 59.77    1122.00
 59.87    1195.00
 59.97    1341.00
 60.07    1462.00
 60.17    1538.02
 60.27    1603.29
 60.37    1540.96
 60.47    1451.00
 60.57    1336.00
 60.67    1006.00
 60.77     847.83
 60.87     770.05
 60.97     690.00
 61.07     630.57
 61.17     629.00
 61.27     627.00
 61.37     639.49
 61.47     682.00
 61.57     749.00
 61.67     796.00
 61.77     901.00
 61.87    1120.04
 61.97    1256.78
 62.07    1339.92
 62.17    1459.41
 62.27    1383.00
 62.37    1298.00
 62.47    1151.49
 62.57    1036.00
 62.67     955.00
 62.77     767.00
 62.87     672.00
 62.97     643.00
 63.07     581.40
 63.17     596.00
 63.27     601.00
 63.37     581.98
 63.47     545.20
 63.57     584.00
 63.67     541.53
 63.77     616.00
 63.87     649.00
 63.97     663.34
 64.07     721.11
 64.17     767.00
 64.27     837.00
 64.37     947.88
 64.47    1023.96
 64.57     973.00
 64.67    1051.79
 64.77     984.00
 64.87     943.23
 64.97     923.00
 65.07     882.00
 65.17     810.00
 65.27     690.00
 65.37     737.04
 65.47     683.58
 65.57     581.63
 65.67     646.27
 65.77     588.00
 65.87     577.00
 65.97     576.79
 66.07     589.00
 66.17     551.00
 66.27     594.00
 66.37     597.00
 66.47     548.00
 66.57     553.90
 66.67     567.00
 66.77     566.00
 66.87     582.00
 66.97     560.00
 67.07     617.00
 67.17     652.00
 67.27     724.00
 67.37     868.00
 67.47    1057.00
 67.57    1287.00
 67.67    1554.74
 67.77    1847.00
 67.87    2075.00
 67.97    2347.37
 68.07    2448.00
 68.17    2425.26
 68.27    2287.00
 68.37    2106.00
 68.47    1836.00
 68.57    1537.00
 68.67    1278.52
 68.77    1065.02
 68.87     856.00
 68.97     782.92
 69.07     675.00
 69.17     643.00
 69.27     699.00
 69.37     679.00
 69.47     571.00
 69.57     625.00
 69.67     598.00
 69.77     590.17
 69.87     642.00
 69.97     519.25
 70.07     609.03
 70.17     564.00
 70.27     603.00
 70.37     571.00
 70.47     596.00
 70.57     562.00
 70.67     567.00
 70.77     605.00
 70.87     608.00
 70.97     623.00
 71.07     677.00
 71.17     760.27
 71.27     784.00
 71.37     955.00
 71.47    1010.00
 71.57    1184.00
 71.67    1404.00
 71.77    1592.00
 71.87    1704.72
 71.97    1927.00
 72.07    1909.00
 72.17    1917.87
 72.27    1733.00
 72.37    1669.00
 72.47    1504.00
 72.57    1364.00
 72.67    1153.00
 72.77    1051.25
 72.87     947.00
 72.97     871.03
 73.07     823.00
 73.17     845.96
 73.27     773.17
 73.37     750.69
 73.47     661.44
 73.57     632.26
 73.67     647.00
 73.77     582.00
 73.87     556.03
 73.97     644.00
 74.07     590.49
 74.17     597.00
 74.27     625.00
 74.37     568.00
 74.47     581.19
 74.57     684.00
 74.67     588.82
 74.77     541.62
 74.87     664.00
 74.97     606.00
 75.07     595.00
 75.17     660.00
 75.27     588.00
 75.37     572.00
 75.47     539.00
 75.57     574.00
 75.67     548.00
 75.77     591.00
 75.87     595.00
 75.97     627.00
 76.07     646.00
 76.17     665.15
 76.27     678.00
 76.37     620.00
 76.47     741.04
 76.57     692.00
 76.67     684.00
 76.77     715.57
 76.87     640.00
 76.97     652.00
 77.07     587.89
 77.17     575.00
 77.27     567.13
 77.37     576.00
 77.47     507.00
 77.57     565.00
 77.67     521.00
 77.77     501.00
 77.87     522.00
 77.97     501.00
 78.07     544.18
 78.17     565.00
 78.27     530.00
 78.37     531.00
 78.47     541.02
 78.57     503.67
 78.67     498.00
 78.77     545.10
 78.87     508.00
 78.97     576.04
 79.07     506.32
 79.17     540.00
 79.27     528.00
 79.37     512.00
 79.47     561.69
 79.57     539.51
 79.67     511.00
 79.77     547.00
 79.87     541.00
 79.97     531.82
 80.07     523.90
 80.17     555.00
 80.27     555.00
 80.37     541.00
 80.47     561.47
 80.57     619.28
 80.67     621.00
 80.77     680.75
 80.87     646.00
 80.97     671.00
 81.07     729.32
 81.17     699.00
 81.27     698.00
 81.37     747.00
 81.47     705.97
 81.57     714.00
 81.67     765.00
 81.77     785.00
 81.87     734.00
 81.97     720.77
 82.07     705.00
 82.17     673.00
 82.27     612.18
 82.37     639.00
 82.47     616.00
 82.57     582.00
 82.67     556.03
 82.77     531.66
 82.87     543.00
 82.97     551.03
 83.07     542.00
 83.17     553.91
 83.27     578.00
 83.37     588.00
 83.47     569.39
 83.57     521.43
 83.67     573.00
 83.77     575.00
 83.87     573.86
 83.97     567.00
 84.07     585.00
 84.17     570.61
 84.27     605.61
 84.37     546.60
 84.47     623.00
 84.57     541.51
 84.67     574.00
 84.77     526.00
 84.87     521.20
 84.97     558.00
 85.07     521.00
 85.17     536.00
 85.27     508.00
 85.37     498.00
 85.47     540.48
 85.57     544.00
 85.67     563.78
 85.77     546.00
 85.87     514.00
 85.97     513.00
 86.07     558.00
 86.17     525.00
 86.27     556.00
 86.37     496.91
 86.47     537.00
 86.57     572.00
 86.67     580.00
 86.77     568.31
 86.87     538.00
 86.97     606.00
 87.07     654.00
 87.17     628.00
 87.27     606.73
 87.37     652.15
 87.47     648.00
 87.57     674.00
 87.67     661.52
 87.77     622.00
 87.87     671.00
 87.97     628.97
 88.07     581.00
 88.17     593.00
 88.27     574.00
 88.37     554.04
 88.47     562.00
 88.57     603.00
 88.67     550.00
 88.77     585.00
 88.87     551.64
 88.97     610.00
 89.07     619.14
 89.17     547.43
 89.27     606.00
 89.37     615.00
 89.47     616.00
 89.57     577.00
 89.67     635.42
 89.77     549.00
 89.87     577.00
 89.97     541.89
 90.07     525.00
 90.17     558.00
 90.27     519.00
 90.37     527.00
 90.47     519.00
 90.57     529.00
 90.67     526.00
 90.77     529.80
 90.87     561.00
 90.97     541.00
 91.07     568.10
 91.17     500.00
 91.27     511.00
 91.37     484.00
 91.47     550.00
 91.57     553.00
 91.67     517.00
 91.77     525.00
 91.87     554.00
 91.97     552.00
 92.07     600.28
 92.17     607.65
 92.27     568.00
 92.37     639.02
 92.47     627.00
 92.57     620.81
 92.67     644.00
 92.77     636.00
 92.87     739.00
 92.97     812.00
 93.07     824.00
 93.17     781.24
 93.27     798.00
 93.37     844.62
 93.47     773.00
 93.57     795.76
 93.67     815.75
 93.77     786.00
 93.87     785.59
 93.97     814.67
 94.07     853.00
 94.17     809.22
 94.27     866.69
 94.37     916.29
 94.47     856.00
 94.57     878.00
 94.67     933.30
 94.77     907.00
 94.87     951.65
 94.97     860.46
 95.07     897.43
 95.17     861.00
 95.27     845.00
 95.37     820.32
 95.47     782.00
 95.57     831.00
 95.67     695.31
 95.77     666.00
 95.87     620.00
 95.97     687.00
 96.07     696.53
 96.17     675.00
 96.27     736.00
 96.37     768.00
 96.47     760.73
 96.57     859.00
 96.67     924.00
 96.77     982.00
 96.87    1040.00
 96.97    1131.00
 97.07    1182.00
 97.17    1254.00
 97.27    1324.00
 97.37    1359.00
 97.47    1352.87
 97.57    1406.00
 97.67    1452.00
 97.77    1418.17
 97.87    1332.00
 97.97    1322.00
 98.07    1271.32
 98.17    1139.00
 98.27    1132.84
 98.37    1034.00
 98.47     930.25
 98.57     907.00
 98.67     814.67
 98.77     833.57
 98.87     775.59
 98.97     843.34
 99.07     781.00
 99.17     842.00
 99.27     879.00
 99.37     925.14
 99.47    1004.00
 99.57    1034.00
 99.67    1177.00
 99.77    1290.97
 99.87    1369.00
 99.97    1530.00
100.07    1665.00
100.17    1763.42
100.27    1883.00
100.37    1985.83
100.47    2070.87
100.57    2125.11
100.67    2086.00
100.77    2142.00
100.87    2080.00
100.97    1932.51
101.07    1854.00
101.17    1887.00
101.27    1796.00
101.37    1656.43
101.47    1577.87
101.57    1535.03
101.67    1438.54
101.77    1405.34
101.87    1361.21
101.97    1218.00
102.07    1132.00
102.17    1109.00
102.27    1087.00
102.37    1143.00
102.47    1031.24
102.57    1044.00
102.67    1129.00
102.77    1050.00
102.87    1027.00
102.97     936.00
103.07     984.00
103.17     914.70
103.27     856.44
103.37     837.17
103.47     755.00
103.57     708.52
103.67     707.00
103.77     685.98
103.87     689.92
103.97     634.00
104.07     640.04
104.17     535.87
104.27     564.00
104.37     560.00
104.47     556.00
104.57     553.06
104.67     552.66
104.77     518.15
104.87     514.00
104.97     572.00
105.07     566.00
105.17     564.79
105.27     528.56
105.37     574.00
105.47     546.14
105.57     506.15
105.67     546.00
105.77     549.04
105.87     576.04
105.97     583.00
106.07     559.31
106.17     577.00
106.27     617.00
106.37     583.00
106.47     625.00
106.57     607.00
106.67     620.00
106.77     695.83
106.87     621.30
106.97     692.49
107.07     682.76
107.17     674.15
107.27     686.00
107.37     668.00
107.47     674.00
107.57     695.00
107.67     703.00
107.77     669.83
107.87     683.00
107.97     683.00
108.07     647.00
108.17     663.00
108.27     671.00
108.37     718.10
108.47     712.00
108.57     669.00
108.67     746.00
108.77     670.63
108.87     659.00
108.97     667.00
109.07     696.75
109.17     720.00
109.27     687.08
109.37     698.00
109.47     673.00
109.57     655.00
109.67     645.00
109.77     590.00
109.87     640.00
109.97     607.00
110.07     566.00
110.17     598.00
110.27     530.20
110.37     573.25
110.47     565.00
110.57     531.23
110.67     506.00
110.77     563.00
110.87     561.66
110.97     544.11
111.07     592.00
111.17     588.00
111.27     530.94
111.37     546.00
111.47     537.00
111.57     563.00
111.67     570.00
111.77     601.84
111.87     566.00
111.97     553.00
112.07     558.38
112.17     593.00
112.27     632.34
112.37     644.22
112.47     597.00
112.57     607.00
112.67     604.00
112.77     678.93
112.87     649.00
112.97     715.00
113.07     691.00
113.17     672.45
113.27     692.22
113.37     803.00
113.47     844.59
113.57     808.00
113.67     897.99
113.77     866.00
113.87     926.01
113.97     985.00
114.07    1049.00
114.17    1068.00
114.27    1201.00
114.37    1279.00
114.47    1342.00
114.57    1436.78
114.67    1525.40
114.77    1627.72
114.87    2044.00
114.97    2103.00
115.07    2220.78
115.17    2468.00
115.27    2758.60
115.37    3187.00
115.47    3562.59
115.57    3743.00
115.67    4192.00
115.77    4443.51
115.87    4645.00
115.97    5249.00
116.07    5478.00
116.17    6020.28
116.27    6399.00
116.37    6615.00
116.47    6886.00
116.57    6973.00
116.67    7128.00
116.77    7052.00
116.87    6790.98
116.97    6818.00
117.07    6409.00
117.17    6257.23
117.27    5581.00
117.37    5590.54
117.47    5094.00
117.57    4554.57
117.67    4372.00
117.77    3805.48
117.87    3688.00
117.97    3322.00
118.07    2860.71
118.17    2402.89
118.27    2281.09
118.37    1930.19
118.47    1759.33
118.57    1556.00
118.67    1456.00
118.77    1286.68
118.87    1117.00
118.97    1012.00
119.07     993.43
119.17     943.00
119.27     807.00
119.37     767.25
119.47     695.00
119.57     701.00
119.67     721.00
119.77     665.00
119.87     623.00
119.97     625.43
120.07     642.00
120.17     630.62
120.27     587.00
120.37     627.73
120.47     577.00
120.57     558.00
120.67     587.00
120.77     544.22
120.87     543.00
120.97     548.68
121.07     596.00
121.17     563.00
121.27     547.20
121.37     599.25
121.47     570.19
121.57     607.60
121.67     572.93
121.77     610.33
121.87     560.45
121.97     617.00
122.07     603.00
122.17     601.00
122.27     619.00
122.37     600.00
122.47     615.00
122.57     675.78
122.67     598.09
122.77     686.00
122.87     688.19
122.97     602.86
123.07     635.00
123.17     663.46
123.27     647.00
123.37     685.49
123.47     652.78
123.57     597.12
123.67     650.00
123.77     623.45
123.87     620.00
123.97     613.92
124.07     626.00
124.17     588.64
124.27     635.00
124.37     599.00
124.47     615.00
124.57     598.20
124.67     611.47
124.77     629.53
124.87     574.04
124.97     546.48
