  9.97     763.90
 10.07     785.00
 10.17     725.36
 10.27     746.00
 10.37     757.00
 10.47     730.00
 10.57     750.00
 10.67     713.15
 10.77     743.00
 10.87     785.00
 10.97     709.00
 11.07     751.00
 11.17     736.00
 11.27     778.00
 11.37     697.61
 11.47     744.00
 11.57     717.13
 11.67     725.00
 11.77     751.00
 11.87     783.61
 11.97     818.00
 12.07     794.00
 12.17     810.00
 12.27     809.00
 12.37     877.44
 12.47     821.00
 12.57     783.82
 12.67     771.62
 12.77     700.00
 12.87     676.00
 12.97     695.22
 13.07     637.00
 13.17     723.03
 13.27     673.46
 13.37     693.00
 13.47     613.00
 13.57     670.75
 13.67     638.00
 13.77     665.00
 13.87     648.37
 13.97     692.00
 14.07     744.00
 14.17     631.91
 14.27     702.75
 14.37     637.00
 14.47     665.00
 14.57     676.94
 14.67     695.00
 14.77     683.00
 14.87     627.05
 14.97     668.62
 15.07     660.47
 15.17     647.50
 15.27     639.34
 15.37     669.00
 15.47     684.00
 15.57     664.00
 15.67     633.00
 15.77     703.00
 15.87     663.00
 15.97     682.67
 16.07     626.00
 16.17     665.00
 16.27     626.00
 16.37     689.00
 16.47     642.00
 16.57     674.46
 16.67     636.83
 16.77     690.62
 16.87     628.00
 16.97     645.00
 17.07     608.00
 17.17     666.27
 17.27     636.33
 17.37     659.00
 17.47     601.00
 17.57     611.00
 17.67     649.00
 17.77     639.00
 17.87     613.17
 17.97     659.00
 18.07     710.00
 18.17     643.00
 18.27     668.83
 18.37     666.68
 18.47     674.45
 18.57     643.70
 18.67     673.00
 18.77     641.00
 18.87     700.00
 18.97     641.00
 19.07     627.44
 19.17     657.64
 19.27     582.00
 19.37     651.00
 19.47     663.16
 19.57     675.14
 19.67     644.00
 19.77     660.00
 19.87     603.00
 19.97     588.00
 20.07     604.00
 20.17     669.43
 20.27     647.00
 20.37     616.00
 20.47     601.00
 20.57     654.00
 20.67     601.00
 20.77     594.00
 20.87     580.00
 20.97     642.00
 21.07     689.35
 21.17     690.71
 21.27     603.69
 21.37     605.38
 21.47     601.00
 21.57     622.87
 21.67     653.00
 21.77     661.00
 21.87     655.00
 21.97     650.00
 22.07     590.89
 22.17     636.55
 22.27     593.00
 22.37     680.52
 22.47     657.82
 22.57     683.09
 22.67     636.00
 22.77     594.81
 22.87     589.72
 22.97     602.00
 23.07     600.00
 23.17     607.00
 23.27     620.00
 23.37     597.00
 23.47     622.00
 23.57     624.00
 23.67     577.30
 23.77     654.00
 23.87     644.00
 23.97     638.00
 24.07     607.00
 24.17     651.00
 24.27     630.00
 24.37     660.00
 24.47     644.00
 24.57     675.00
 24.67     637.05
 24.77     694.37
 24.87     681.00
 24.97     761.04
 25.07     726.00
 25.17     713.89
 25.27     653.68
 25.37     686.00
 25.47     684.00
 25.57     603.92
 25.67     630.00
 25.77     680.00
 25.87     695.00
 25.97     679.66
 26.07     619.79
 26.17     669.00
 26.27     686.00
 26.37     631.99
 26.47     626.72
 26.57     616.00
 26.67     660.00
 26.77     648.00
 26.87     703.28
 26.97     685.00
 27.07     695.00
 27.17     695.00
 27.27     742.89
 27.37     735.00
 27.47     765.00
 27.57     868.00
 27.67     843.00
 27.77     936.00
 27.87    1025.00
 27.97    1361.00
 28.07    2055.28
 28.17    3362.00
 28.27    5458.00
 28.37    7830.56
 28.47    8691.95
 28.57    8055.30
 28.67    6431.00
 28.77    4581.00
 28.87    3763.00
 28.97    4061.93
 29.07    4513.00
 29.17    5078.00
 29.27    4532.00
 29.37    3542.00
 29.47    2530.82
 29.57    1737.00
 29.67    1335.00
 29.77     979.00
 29.87     869.49
 29.97     850.65
 30.07     824.00
 30.17     791.71
 30.27     755.00
 30.37     713.57
 30.47     655.03
 30.57     711.00
 30.67     722.47
 30.77     692.00
 30.87     753.00
 30.97     697.00
 31.07     832.00
 31.17     840.00
 31.27     822.00
 31.37     768.00
 31.47     688.05
 31.57     674.82
 31.67     694.69
 31.77     660.00
 31.87     645.00
 31.97     681.00
 32.07     652.60
 32.17     667.00
 32.27     648.00
 32.37     610.00
 32.47     692.00
 32.57     681.00
 32.67     596.70
 32.77     672.00
 32.87     665.57
 32.97     626.78
 33.07     676.00
 33.17     680.00
 33.27     626.00
 33.37     590.45
 33.47     646.00
 33.57     673.00
 33.67     672.00
 33.77     693.00
 33.87     700.62
 33.97     828.25
 34.07     923.18
 34.17    1183.44
 34.27    1239.00
 34.37    1287.00
 34.47    1166.00
 34.57    1164.00
 34.67     936.80
 34.77     831.00
 34.87     782.88
 34.97     704.00
 35.07     606.74
 35.17     667.81
 35.27     691.00
 35.37     646.00
 35.47     621.00
 35.57     647.00
 35.67     626.00
 35.77     577.04
 35.87     636.00
 35.97     630.00
 36.07     646.68
 36.17     589.00
 36.27     632.00
 36.37     590.00
 36.47     595.84
 36.57     657.37
 36.67     587.00
 36.77     676.00
 36.87     620.77
 36.97     614.00
 37.07     599.00
 37.17     616.00
 37.27     608.00
 37.37     614.00
 37.47     627.93
 37.57     662.00
 37.67     645.00
 37.77     640.00
 37.87     668.25
 37.97     663.00
 38.07     716.00
 38.17     752.00
 38.27     778.00
 38.37     776.96
 38.47     752.00
 38.57     783.93
 38.67     724.35
 38.77     663.00
 38.87     625.00
 38.97     632.00
 39.07     609.00
 39.17     616.00
 39.27     612.00
 39.37     577.50
 39.47     629.43
 39.57     614.00
 39.67     641.99
 39.77     640.99
 39.87     608.33
 39.97     595.00
 40.07     583.00
 40.17     608.00
 40.27     622.00
 40.37     599.00
 40.47     598.00
 40.57     590.00
 40.67     570.00
 40.77     581.00
 40.87     555.00
 40.97     618.00
 41.07     588.00
 41.17     565.74
 41.27     574.30
 41.37     584.00
 41.47     610.00
 41.57     665.00
 41.67     583.00
 41.77     610.00
 41.87     656.54
 41.97     627.00
 42.07     648.00
 42.17     631.00
 42.27     658.86
 42.37     622.00
 42.47     578.00
 42.57     602.00
 42.67     702.59
 42.77     643.00
 42.87     725.58
 42.97     717.41
 43.07     681.94
 43.17     775.06
 43.27     685.00
 43.37     678.00
 43.47     688.58
 43.57     688.08
 43.67     635.00
 43.77     595.29
 43.87     630.00
 43.97     642.36
 44.07     640.00
 44.17     640.00
 44.27     629.85
 44.37     626.28
 44.47     659.77
 44.57     567.71
 44.67     640.06
 44.77     639.00
 44.87     627.51
 44.97     629.00
 45.07     543.00
 45.17     665.00
 45.27     673.00
 45.37     641.67
 45.47     577.71
 45.57     635.00
 45.67     656.00
 45.77     624.00
 45.87     633.00
 45.97     626.00
 46.07     605.00
 46.17     582.00
 46.27     653.98
 46.37     633.00
 46.47     618.00
 46.57     594.78
 46.67     581.48
 46.77     667.00
 46.87     646.00
 46.97     610.00
 47.07     606.00
 47.17     588.00
 47.27     589.00
 47.37     599.00
 47.47     607.38
 47.57     635.00
 47.67     588.22
 47.77     648.50
 47.87     617.63
 47.97     667.00
 48.07     690.00
 48.17     693.00
 48.27     715.00
 48.37     752.93
 48.47     653.78
 48.57     708.00
 48.67     692.76
 48.77     711.00
 48.87     592.00
 48.97     639.00
 49.07     637.00
 49.17     615.24
 49.27     653.42
 49.37     627.00
 49.47     681.00
 49.57     735.93
 49.67     732.36
 49.77     760.00
 49.87     857.02
 49.97    1036.90
 50.07    1196.00
 50.17    1525.00
 50.27    1895.00
 50.37    2549.68
 50.47    2978.00
 50.57    3132.00
 50.67    3187.00
 50.77    2898.00
 50.87    2428.00
 50.97    1961.00
 51.07    1587.90
 51.17    1223.00
 51.27    1002.00
 51.37     880.00
 51.47     858.00
 51.57     788.00
 51.67     770.54
 51.77     753.00
 51.87     691.00
 51.97     763.61
 52.07     732.98
 52.17     708.00
 52.27     709.70
 52.37     701.00
 52.47     701.00
 52.57     727.28
 52.67     723.00
 52.77     725.77
 52.87     718.17
 52.97     683.36
 53.07     731.00
 53.17     748.96
 53.27     696.88
 53.37     727.00
 53.47     908.13
 53.57     930.00
 53.67    1006.00
 53.77    1158.00
 53.87    1304.00
 53.97    1328.00
 54.07    1305.00
 54.17    1348.00
 54.27    1164.00
 54.37    1040.18
 54.47    1005.97
 54.57     812.00
 54.67     773.04
 54.77     736.00
 54.87     742.00
 54.97     732.00
 55.07     652.00
 55.17     641.09
 55.27     673.02
 55.37     713.84
 55.47     643.06
 55.57     728.00
 55.67     723.00
 55.77     730.00
 55.87     751.63
 55.97     652.52
 56.07     719.37
 56.17     673.14
 56.27     691.73
 56.37     767.00
 56.47     805.00
 56.57     892.00
 56.67    1022.00
 56.77    1246.72
 56.87    1447.00
 56.97    1722.30
 57.07    2181.15
 57.17    2446.71
 57.27    2735.46
 57.37    2630.00
 57.47    2693.00
 57.57    2426.67
 57.67    2102.00
 57.77    1787.00
 57.87    1538.08
 57.97    1222.00
 58.07     986.00
 58.17     912.03
 58.27     871.00
 58.37     825.00
 58.47     873.00
 58.57     822.00
 58.67     832.33
 58.77     935.90
 58.87     934.00
 58.97    1036.00
 59.07    1132.00
 59.17    1159.00
 59.27    1289.00
 59.37    1313.00
 59.47    1349.00
 59.57    1345.74
 59.67    1360.00
 59.77    1355.79
 59.87    1314.00
 59.97    1249.00
 60.07    1228.06
 60.17    1289.95
 60.27    1342.77
 60.37    1399.00
 60.47    1416.00
 60.57    1604.00
 60.67    1680.00
 60.77    1650.00
 60.87    1591.00
 60.97    1539.93
 61.07    1371.00
 61.17    1255.00
 61.27    1044.00
 61.37    1011.94
 61.47     919.31
 61.57     877.18
 61.67     774.13
 61.77     801.27
 61.87     867.00
 61.97     952.00
 62.07     983.00
 62.17    1136.88
 62.27    1320.00
 62.37    1464.00
 62.47    1717.15
 62.57    1746.00
 62.67    1810.00
 62.77    1778.03
 62.87    1771.33
 62.97    1589.00
 63.07    1411.00
 63.17    1279.24
 63.27    1113.00
 63.37    1008.43
 63.47     887.93
 63.57     814.18
 63.67     761.00
 63.77     740.00
 63.87     743.00
 63.97     728.00
 64.07     695.47
 64.17     797.46
 64.27     764.00
 64.37     804.75
 64.47     868.00
 64.57     944.81
 64.67    1065.43
 64.77    1090.00
 64.87    1203.00
 64.97    1372.00
 65.07    1525.00
 65.17    1556.47
 65.27    1693.00
 65.37    1661.00
 65.47    1515.29
 65.57    1489.00
 65.67    1354.27
 65.77    1261.98
 65.87    1115.00
 65.97     984.00
 66.07     860.00
 66.17     860.00
 66.27     775.04
 66.37     789.00
 66.47     710.00
 66.57     673.00
 66.67     709.00
 66.77     716.00
 66.87     689.00
 66.97     720.58
 67.07     692.00
 67.17     735.87
 67.27     734.28
 67.37     726.00
 67.47     731.40
 67.57     817.00
 67.67     853.01
 67.77     929.00
 67.87    1011.00
 67.97    1135.00
 68.07    1351.00
 68.17    1503.00
 68.27    1733.00
 68.37    2051.00
 68.47    2203.00
 68.57    2394.00
 68.67    2533.00
 68.77    2585.00
 68.87    2471.00
 68.97    2283.00
 69.07    2037.00
 69.17    1747.74
 69.27    1560.00
 69.37    1338.00
 69.47    1126.00
 69.57    1077.00
 69.67     890.00
 69.77     874.00
 69.87     867.00
 69.97     810.43
 70.07     810.00
 70.17     797.00
 70.27     709.00
 70.37     775.00
 70.47     684.00
 70.57     698.05
 70.67     710.14
 70.77     727.00
 70.87     675.64
 70.97     664.10
 71.07     734.00
 71.17     769.00
 71.27     678.00
 71.37     760.00
 71.47     748.46
 71.57     755.30
 71.67     830.00
 71.77     883.00
 71.87    1027.76
 71.97    1149.62
 72.07    1221.00
 72.17    1376.00
 72.27    1471.39
 72.37    1661.00
 72.47    1791.04
 72.57    1964.39
 72.67    2031.00
 72.77    2035.58
 72.87    1950.00
 72.97    1817.00
 73.07    1684.27
 73.17    1519.11
 73.27    1349.00
 73.37    1168.00
 73.47    1032.00
 73.57     946.56
 73.67     897.88
 73.77     780.00
 73.87     775.00
 73.97     789.16
 74.07     664.32
 74.17     738.45
 74.27     673.00
 74.37     713.41
 74.47     633.00
 74.57     635.00
 74.67     712.00
 74.77     694.00
 74.87     665.27
 74.97     698.00
 75.07     684.00
 75.17     733.00
 75.27     737.60
 75.37     658.51
 75.47     684.86
 75.57     755.00
 75.67     704.84
 75.77     686.00
 75.87     714.00
 75.97     711.24
 76.07     653.78
 76.17     725.00
 76.27     720.00
 76.37     696.00
 76.47     776.00
 76.57     792.00
 76.67     803.00
 76.77     873.00
 76.87     885.01
 76.97     914.00
 77.07     998.19
 77.17    1052.00
 77.27    1054.00
 77.37    1094.00
 77.47     998.00
 77.57    1024.61
 77.67     984.00
 77.77     923.00
 77.87     848.92
 77.97     761.04
 78.07     747.34
 78.17     716.00
 78.27     753.50
 78.37     664.00
 78.47     675.00
 78.57     638.70
 78.67     670.65
 78.77     618.10
 78.87     634.00
 78.97     630.11
 79.07     642.00
 79.17     662.91
 79.27     621.00
 79.37     641.16
 79.47     607.00
 79.57     638.00
 79.67     641.56
 79.77     635.55
 79.87     627.00
 79.97     603.91
 80.07     643.00
 80.17     683.76
 80.27     611.00
 80.37     682.00
 80.47     684.37
 80.57     751.00
 80.67     716.00
 80.77     775.11
 80.87     812.00
 80.97     952.00
 81.07     953.25
 81.17    1026.06
 81.27    1041.33
 81.37    1281.00
 81.47    1444.00
 81.57    1308.13
 81.67    1463.00
 81.77    1411.64
 81.87    1537.37
 81.97    1560.00
 82.07    1358.44
 82.17    1481.00
 82.27    1366.00
 82.37    1352.00
 82.47    1205.49
 82.57    1150.00
 82.67    1039.70
 82.77     984.12
 82.87     881.79
 82.97     908.05
 83.07     790.00
 83.17     763.00
 83.27     724.00
 83.37     709.00
 83.47     733.78
 83.57     676.99
 83.67     700.00
 83.77     665.00
 83.87     698.89
 83.97     695.85
 84.07     726.73
 84.17     641.00
 84.27     659.00
 84.37     647.79
 84.47     715.30
 84.57     656.13
 84.67     638.00
 84.77     729.91
 84.87     679.00
 84.97     601.00
 85.07     696.04
 85.17     676.00
 85.27     663.00
 85.37     644.00
 85.47     658.00
 85.57     573.00
 85.67     614.00
 85.77     631.00
 85.87     649.00
 85.97     605.41
 86.07     598.87
 86.17     637.00
 86.27     646.00
 86.37     679.00
 86.47     628.64
 86.57     633.00
 86.67     594.38
 86.77     669.00
 86.87     663.00
 86.97     670.00
 87.07     694.00
 87.17     719.67
 87.27     640.15
 87.37     672.00
 87.47     684.00
 87.57     719.00
 87.67     732.00
 87.77     709.94
 87.87     736.73
 87.97     780.00
 88.07     772.00
 88.17     767.00
 88.27     716.00
 88.37     672.95
 88.47     725.00
 88.57     769.27
 88.67     728.00
 88.77     689.00
 88.87     714.58
 88.97     727.00
 89.07     656.00
 89.17     647.00
 89.27     655.00
 89.37     656.00
 89.47     614.68
 89.57     671.00
 89.67     690.00
 89.77     684.27
 89.87     702.00
 89.97     694.00
 90.07     724.00
 90.17     712.00
 90.27     753.00
 90.37     672.00
 90.47     680.00
 90.57     714.39
 90.67     660.00
 90.77     714.91
 90.87     690.00
 90.97     614.00
 91.07     642.00
 91.17     636.00
 91.27     605.33
 91.37     571.00
 91.47     641.84
 91.57     576.00
 91.67     612.00
 91.77     566.45
 91.87     599.10
 91.97     639.60
 92.07     606.96
 92.17     621.00
 92.27     577.00
 92.37     611.00
 92.47     629.36
 92.57     599.00
 92.67     615.00
 92.77     657.90
 92.87     671.84
 92.97     691.00
 93.07     631.58
 93.17     671.02
 93.27     627.00
 93.37     697.00
 93.47     693.00
 93.57     729.03
 93.67     725.00
 93.77     770.00
 93.87     736.80
 93.97     761.00
 94.07     848.75
 94.17     855.00
 94.27     834.00
 94.37     845.00
 94.47     916.00
 94.57     947.00
 94.67     990.00
 94.77     942.03
 94.87     992.00
 94.97     971.00
 95.07     989.00
 95.17    1056.00
 95.27     992.00
 95.37     977.00
 95.47    1087.00
 95.57    1100.00
 95.67    1001.52
 95.77    1079.00
 95.87    1017.37
 95.97    1016.64
 96.07    1028.58
 96.17     956.00
 96.27     979.33
 96.37     924.00
 96.47     879.00
 96.57     890.00
 96.67     841.00
 96.77     825.00
 96.87     863.00
 96.97     847.00
 97.07     824.00
 97.17     830.91
 97.27     964.00
 97.37     966.00
 97.47     920.09
 97.57    1089.26
 97.67    1150.00
 97.77    1183.00
 97.87    1207.69
 97.97    1340.00
 98.07    1443.26
 98.17    1479.55
 98.27    1540.43
 98.37    1521.00
 98.47    1636.00
 98.57    1676.49
 98.67    1665.55
 98.77    1563.00
 98.87    1505.40
 98.97    1485.00
 99.07    1414.53
 99.17    1297.37
 99.27    1276.00
 99.37    1300.48
 99.47    1195.00
 99.57    1104.00
 99.67    1095.00
 99.77    1031.00
 99.87    1045.42
 99.97    1007.00
100.07    1047.95
100.17    1080.00
100.27    1094.00
100.37    1139.00
100.47    1167.95
100.57    1279.79
100.67    1344.00
100.77    1481.00
100.87    1443.60
100.97    1644.00
101.07    1704.57
101.17    1724.00
101.27    1945.00
101.37    1982.53
101.47    1886.00
101.57    2156.00
101.67    2063.29
101.77    2187.00
101.87    2200.83
101.97    2094.00
102.07    2088.67
102.17    2212.00
102.27    2065.00
102.37    1915.34
102.47    1907.00
102.57    1815.00
102.67    1795.00
102.77    1633.16
102.87    1610.00
102.97    1549.00
103.07    1464.00
103.17    1489.14
103.27    1473.49
103.37    1387.00
103.47    1329.00
103.57    1278.00
103.67    1292.59
103.77    1231.00
103.87    1218.00
103.97    1202.65
104.07    1089.11
104.17    1091.33
104.27    1075.74
104.37    1011.62
104.47     962.65
104.57     905.00
104.67     836.39
104.77     906.00
104.87     802.00
104.97     763.82
105.07     745.00
105.17     763.00
105.27     692.00
105.37     663.00
105.47     642.60
105.57     648.60
105.67     651.42
105.77     593.38
105.87     664.00
105.97     683.00
106.07     614.70
106.17     651.00
106.27     624.00
106.37     662.00
106.47     633.00
106.57     652.00
106.67     636.00
106.77     661.91
106.87     675.00
106.97     700.00
107.07     625.00
107.17     624.67
107.27     693.15
107.37     701.00
107.47     667.02
107.57     725.00
107.67     699.80
107.77     712.00
107.87     777.00
107.97     772.00
108.07     781.93
108.17     834.49
108.27     781.00
108.37     793.00
108.47     781.00
108.57     854.65
108.67     774.00
108.77     773.00
108.87     806.42
108.97     796.60
109.07     767.00
109.17     759.00
109.27     799.00
109.37     819.00
109.47     781.00
109.57     735.00
109.67     759.13
109.77     819.00
109.87     779.00
109.97     808.00
110.07     818.00
110.17     764.00
110.27     814.00
110.37     799.00
110.47     794.00
110.57     767.00
110.67     750.00
110.77     715.00
110.87     705.00
110.97     703.00
111.07     716.00
111.17     702.00
111.27     751.00
111.37     734.21
111.47     685.00
111.57     650.11
111.67     647.42
111.77     659.94
111.87     607.10
111.97     690.00
112.07     614.00
112.17     589.50
112.27     663.56
112.37     643.00
112.47     648.00
112.57     626.00
112.67     612.13
112.77     628.00
112.87     624.00
112.97     582.87
113.07     619.00
113.17     637.00
113.27     597.00
113.37     619.00
113.47     666.12
113.57     625.21
113.67     671.27
113.77     597.00
113.87     657.00
113.97     620.30
114.07     661.00
114.17     598.00
114.27     732.00
114.37     681.00
114.47     673.15
114.57     718.00
114.67     725.33
114.77     735.00
114.87     767.00
114.97     752.43
115.07     770.00
115.17     838.97
115.27     895.00
115.37     899.00
115.47    1114.27
115.57    1118.00
115.67    1258.00
115.77    1357.00
115.87    1485.00
115.97    1706.35
116.07    1929.00
116.17    2064.00
116.27    2324.88
116.37    2655.00
116.47    2990.00
116.57    3293.00
116.67    3491.00
116.77    3858.93
116.87    4193.00
116.97    4665.00
117.07    4960.00
117.17    5497.22
117.27    5880.00
117.37    6183.13
117.47    6546.00
117.57    6928.54
117.67    7270.00
117.77    7369.00
117.87    7356.00
117.97    7498.00
118.07    7548.00
118.17    7324.62
118.27    7409.00
118.37    7345.00
118.47    7134.31
118.57    6502.00
118.67    6236.00
118.77    5844.00
118.87    5576.00
118.97    5139.00
119.07    4884.00
119.17    4409.29
119.27    4230.00
119.37    3844.00
119.47    3492.00
119.57    3242.00
119.67    2816.00
119.77    2584.00
119.87    2279.00
119.97    2066.00
120.07    1984.00
120.17    1733.87
120.27    1650.11
120.37    1423.90
120.47    1386.29
120.57    1189.76
120.67    1222.00
120.77    1178.00
120.87    1089.89
120.97    1014.00
121.07     870.39
121.17     862.00
121.27     845.00
121.37     776.08
121.47     782.00
121.57     780.11
121.67     749.00
121.77     794.51
121.87     803.91
121.97     697.00
122.07     723.13
122.17     696.00
122.27     772.30
122.37     683.00
122.47     663.00
122.57     671.49
122.67     724.08
122.77     723.00
122.87     712.00
122.97     648.00
123.07     691.00
123.17     737.00
123.27     713.00
123.37     791.02
123.47     718.00
123.57     738.00
123.67     812.66
123.77     790.00
123.87     730.67
123.97     764.00
124.07     835.00
124.17     807.00
124.27     722.14
124.37     729.44
124.47     835.93
124.57     800.11
124.67     732.92
124.77     725.25
124.87     794.45
124.97     828.00
