  9.97     699.00
 10.07     688.00
 10.17     666.00
 10.27     653.84
 10.37     702.17
 10.47     677.71
 10.57     643.00
 10.67     669.00
 10.77     625.85
 10.87     656.00
 10.97     706.00
 11.07     592.63
 11.17     635.00
 11.27     677.00
 11.37     643.00
 11.47     634.65
 11.57     667.00
 11.67     665.27
 11.77     663.00
 11.87     736.00
 11.97     685.33
 12.07     770.00
 12.17     787.99
 12.27     816.94
 12.37     708.08
 12.47     751.00
 12.57     722.00
 12.67     678.00
 12.77     692.29
 12.87     669.00
 12.97     635.00
 13.07     593.15
 13.17     581.00
 13.27     654.30
 13.37     641.00
 13.47     586.00
 13.57     634.00
 13.67     591.46
 13.77     609.00
 13.87     654.00
 13.97     626.00
 14.07     663.00
 14.17     634.19
 14.27     670.44
 14.37     676.89
 14.47     602.00
 14.57     618.00
 14.67     580.00
 14.77     684.12
 14.87     629.00
 14.97     589.00
 15.07     619.92
 15.17     613.00
 15.27     618.00
 15.37     559.00
 15.47     657.00
 15.57     626.00
 15.67     612.98
 15.77     619.00
 15.87     607.45
 15.97     631.00
 16.07     603.00
 16.17     587.56
 16.27     610.61
 16.37     571.00
 16.47     639.31
 16.57     645.05
 16.67     639.00
 16.77     670.89
 16.87     614.34
 16.97     580.00
 17.07     604.00
 17.17     568.18
 17.27     635.00
 17.37     595.00
 17.47     619.38
 17.57     597.00
 17.67     597.00
 17.77     581.00
 17.87     615.00
 17.97     622.00
 18.07     632.73
 18.17     647.37
 18.27     658.63
 18.37     576.00
 18.47     565.87
 18.57     655.03
 18.67     592.99
 18.77     607.00
 18.87     603.62
 18.97     630.46
 19.07     569.00
 19.17     611.00
 19.27     619.00
 19.37     584.00
 19.47     666.23
 19.57     630.80
 19.67     613.00
 19.77     591.40
 19.87     631.37
 19.97     575.00
 20.07     566.00
 20.17     568.00
 20.27     658.86
 20.37     598.00
 20.47     611.00
 20.57     595.17
 20.67     605.00
 20.77     617.63
 20.87     603.33
 20.97     587.00
 21.07     610.24
 21.17     613.00
 21.27     562.00
 21.37     603.00
 21.47     614.00
 21.57     592.00
 21.67     567.00
 21.77     651.71
 21.87     589.41
 21.97     616.00
 22.07     621.00
 22.17     612.00
 22.27     587.00
 22.37     587.00
 22.47     602.00
 22.57     592.39
 22.67     612.93
 22.77     604.00
 22.87     594.00
 22.97     563.00
 23.07     609.00
 23.17     548.15
 23.27     583.00
 23.37     646.21
 23.47     653.00
 23.57     598.00
 23.67     585.00
 23.77     648.00
 23.87     621.00
 23.97     611.00
 24.07     604.00
 24.17     618.00
 24.27     620.00
 24.37     587.00
 24.47     641.00
 24.57     679.00
 24.67     686.00
 24.77     629.48
 24.87     678.00
 24.97     719.00
 25.07     716.57
 25.17     657.00
 25.27     684.63
 25.37     605.00
 25.47     587.66
 25.57     653.00
 25.67     613.00
 25.77     581.60
 25.87     633.00
 25.97     678.00
 26.07     633.88
 26.17     650.00
 26.27     664.00
 26.37     623.00
 26.47     619.00
 26.57     654.29
 26.67     571.39
 26.77     631.00
 26.87     654.00
 26.97     648.00
 27.07     651.65
 27.17     657.00
 27.27     624.66
 27.37     625.57
 27.47     693.22
 27.57     715.00
 27.67     752.00
 27.77     752.00
 27.87     855.00
 27.97    1194.60
 28.07    1481.62
 28.17    2111.00
 28.27    2757.82
 28.37    3380.52
 28.47    3129.08
 28.57    2669.00
 28.67    2042.00
 28.77    1858.81
 28.87    1882.80
 28.97    1929.99
 29.07    2165.66
 29.17    2109.70
 29.27    1633.00
 29.37    1360.25
 29.47    1060.00
 29.57     935.00
 29.67     776.00
 29.77     681.73
 29.87     748.00
 29.97     632.21
 30.07     630.90
 30.17     579.16
 30.27     614.31
 30.37     678.00
 30.47     638.00
 30.57     657.13
 30.67     682.00
 30.77     680.00
 30.87     666.00
 30.97     755.00
 31.07     736.00
 31.17     726.00
 31.27     663.96
 31.37     655.00
 31.47     654.00
 31.57     595.00
 31.67     616.09
 31.77     623.00
 31.87     581.00
 31.97     612.00
 32.07     574.07
 32.17     587.00
 32.27     609.00
 32.37     614.00
 32.47     623.41
 32.57     610.00
 32.67     603.00
 32.77     609.00
 32.87     605.00
 32.97     601.00
 33.07     587.00
 33.17     601.55
 33.27     610.00
 33.37     542.33
 33.47     623.00
 33.57     596.00
 33.67     615.00
 33.77     650.00
 33.87     693.04
 33.97     874.00
 34.07     940.00
 34.17    1094.95
 34.27    1044.89
 34.37    1096.26
 34.47     886.00
 34.57     848.43
 34.67     665.89
 34.77     657.00
 34.87     648.00
 34.97     587.00
 35.07     597.16
 35.17     596.26
 35.27     572.00
 35.37     546.00
 35.47     557.98
 35.57     581.00
 35.67     586.00
 35.77     584.00
 35.87     593.00
 35.97     537.84
 36.07     540.00
 36.17     555.00
 36.27     587.00
 36.37     591.00
 36.47     606.15
 36.57     563.00
 36.67     558.00
 36.77     579.00
 36.87     570.00
 36.97     533.00
 37.07     537.00
 37.17     595.05
 37.27     588.84
 37.37     544.90
 37.47     596.59
 37.57     557.41
 37.67     549.00
 37.77     531.02
 37.87     581.00
 37.97     586.00
 38.07     603.00
 38.17     597.69
 38.27     624.00
 38.37     607.00
 38.47     580.00
 38.57     530.00
 38.67     589.00
 38.77     562.00
 38.87     551.00
 38.97     611.00
 39.07     519.53
 39.17     530.06
 39.27     553.00
 39.37     501.06
 39.47     521.00
 39.57     532.00
 39.67     498.53
 39.77     586.48
 39.87     514.10
 39.97     508.00
 40.07     567.22
 40.17     490.00
 40.27     544.00
 40.37     520.66
 40.47     554.00
 40.57     501.00
 40.67     538.00
 40.77     483.00
 40.87     546.00
 40.97     523.00
 41.07     542.00
 41.17     555.60
 41.27     594.50
 41.37     547.00
 41.47     499.44
 41.57     521.00
 41.67     533.00
 41.77     527.00
 41.87     542.00
 41.97     601.64
 42.07     551.00
 42.17     518.00
 42.27     591.11
 42.37     509.00
 42.47     545.00
 42.57     573.00
 42.67     603.00
 42.77     603.00
 42.87     643.53
 42.97     690.03
 43.07     685.04
 43.17     594.00
 43.27     563.00
 43.37     496.00
 43.47     592.22
 43.57     596.00
 43.67     509.87
 43.77     468.00
 43.87     523.00
 43.97     533.00
 44.07     573.00
 44.17     544.22
 44.27     543.94
 44.37     561.00
 44.47     546.00
 44.57     566.35
 44.67     492.73
 44.77     534.63
 44.87     542.52
 44.97     521.51
 45.07     572.00
 45.17     542.00
 45.27     542.00
 45.37     555.75
 45.47     509.63
 45.57     521.60
 45.67     551.72
 45.77     543.00
 45.87     545.00
 45.97     568.27
 46.07     551.00
 46.17     514.00
 46.27     514.91
 46.37     543.04
 46.47     535.00
 46.57     561.94
 46.67     552.00
 46.77     575.83
 46.87     566.00
 46.97     573.00
 47.07     574.35
 47.17     540.94
 47.27     558.12
 47.37     534.07
 47.47     584.00
 47.57     551.00
 47.67     589.00
 47.77     575.53
 47.87     563.00
 47.97     639.00
 48.07     638.00
 48.17     615.21
 48.27     673.00
 48.37     598.59
 48.47     636.00
 48.57     586.00
 48.67     545.00
 48.77     605.00
 48.87     587.00
 48.97     575.71
 49.07     590.00
 49.17     582.00
 49.27     596.00
 49.37     622.00
 49.47     657.00
 49.57     668.00
 49.67     686.94
 49.77     772.00
 49.87     868.00
 49.97    1094.71
 50.07    1398.30
 50.17    1738.00
 50.27    2326.00
 50.37    2436.13
 50.47    2679.52
 50.57    2500.00
 50.67    2201.00
 50.77    1838.10
 50.87    1366.00
 50.97    1110.00
 51.07     900.00
 51.17     792.36
 51.27     768.86
 51.37     668.00
 51.47     700.00
 51.57     676.00
 51.67     674.00
 51.77     631.00
 51.87     649.00
 51.97     612.27
 52.07     641.00
 52.17     657.43
 52.27     622.00
 52.37     609.00
 52.47     611.00
 52.57     556.96
 52.67     628.00
 52.77     594.77
 52.87     666.00
 52.97     626.55
 53.07     652.94
 53.17     673.98
 53.27     742.31
 53.37     895.00
 53.47     929.00
 53.57    1041.34
 53.67    1138.00
 53.77    1272.31
 53.87    1164.51
 53.97    1191.00
 54.07    1160.67
 54.17     956.00
 54.27     875.00
 54.37     813.00
 54.47     745.00
 54.57     668.00
 54.67     613.00
 54.77     655.69
 54.87     612.74
 54.97     603.00
 55.07     658.00
 55.17     638.00
 55.27     590.00
 55.37     582.01
 55.47     648.70
 55.57     582.23
 55.67     605.00
 55.77     658.98
 55.87     658.00
 55.97     654.00
 56.07     695.00
 56.17     698.00
 56.27     723.00
 56.37     781.10
 56.47     871.00
 56.57    1054.00
 56.67    1288.00
 56.77    1520.19
 56.87    1896.00
 56.97    2205.00
 57.07    2423.00
 57.17    2660.00
 57.27    2462.00
 57.37    2253.13
 57.47    2149.71
 57.57    1663.00
 57.67    1520.38
 57.77    1167.00
 57.87     966.00
 57.97     833.52
 58.07     776.00
 58.17     759.00
 58.27     751.00
 58.37     764.00
 58.47     750.00
 58.57     875.00
 58.67     830.00
 58.77     924.00
 58.87    1061.51
 58.97    1131.00
 59.07    1216.00
 59.17    1274.00
 59.27    1301.00
 59.37    1253.20
 59.47    1232.00
 59.57    1313.00
 59.67    1207.37
 59.77    1121.50
 59.87    1105.00
 59.97    1159.88
 60.07    1180.00
 60.17    1315.00
 60.27    1429.00
 60.37    1365.74
 60.47    1591.00
 60.57    1655.00
 60.67    1414.95
 60.77    1519.00
 60.87    1225.54
 60.97    1174.00
 61.07    1031.00
 61.17     950.00
 61.27     821.08
 61.37     751.79
 61.47     796.01
 61.57     742.00
 61.67     770.00
 61.77     853.00
 61.87     978.00
 61.97     985.00
 62.07    1076.00
 62.17    1191.00
 62.27    1270.00
 62.37    1389.00
 62.47    1492.00
 62.57    1404.00
 62.67    1341.58
 62.77    1245.00
 62.87    1172.83
 62.97    1031.00
 63.07     946.58
 63.17     795.00
 63.27     699.00
 63.37     736.00
 63.47     625.00
 63.57     677.00
 63.67     589.00
 63.77     679.53
 63.87     606.04
 63.97     632.00
 64.07     677.00
 64.17     741.29
 64.27     772.00
 64.37     806.00
 64.47     841.00
 64.57     923.00
 64.67     920.62
 64.77    1136.00
 64.87    1056.60
 64.97    1255.00
 65.07    1208.00
 65.17    1213.42
 65.27    1153.28
 65.37    1069.00
 65.47     970.00
 65.57     938.00
 65.67     850.00
 65.77     854.82
 65.87     750.00
 65.97     676.56
 66.07     741.64
 66.17     664.09
 66.27     642.03
 66.37     619.61
 66.47     644.00
 66.57     614.00
 66.67     688.61
 66.77     691.71
 66.87     618.00
 66.97     628.00
 67.07     638.00
 67.17     639.00
 67.27     659.84
 67.37     675.34
 67.47     799.00
 67.57     882.26
 67.67     904.00
 67.77    1106.00
 67.87    1227.00
 67.97    1511.23
 68.07    1751.05
 68.17    1931.40
 68.27    2172.94
 68.37    2406.00
 68.47    2442.00
 68.57    2469.59
 68.67    2312.00
 68.77    2169.00
 68.87    1895.83
 68.97    1560.11
 69.07    1291.41
 69.17    1192.92
 69.27     963.00
 69.37     860.99
 69.47     845.00
 69.57     767.25
 69.67     724.00
 69.77     734.74
 69.87     621.13
 69.97     620.00
 70.07     603.00
 70.17     613.00
 70.27     645.30
 70.37     623.00
 70.47     573.49
 70.57     610.00
 70.67     630.00
 70.77     609.00
 70.87     654.00
 70.97     603.00
 71.07     614.00
 71.17     672.76
 71.27     719.00
 71.37     690.64
 71.47     731.47
 71.57     842.00
 71.67     947.00
 71.77    1061.00
 71.87    1193.00
 71.97    1399.00
 72.07    1583.00
 72.17    1634.00
 72.27    1748.00
 72.37    1859.95
 72.47    1899.00
 72.57    1887.00
 72.67    1803.00
 72.77    1678.64
 72.87    1448.00
 72.97    1284.00
 73.07    1111.00
 73.17    1089.57
 73.27     913.00
 73.37     812.00
 73.47     735.00
 73.57     725.13
 73.67     700.00
 73.77     662.46
 73.87     589.05
 73.97     673.00
 74.07     673.44
 74.17     562.88
 74.27     552.77
 74.37     578.00
 74.47     603.18
 74.57     561.73
 74.67     634.00
 74.77     647.00
 74.87     573.77
 74.97     672.00
 75.07     655.11
 75.17     721.00
 75.27     677.00
 75.37     652.94
 75.47     628.30
 75.57     595.89
 75.67     642.00
 75.77     646.52
 75.87     671.00
 75.97     577.00
 76.07     610.00
 76.17     647.00
 76.27     651.00
 76.37     724.00
 76.47     731.00
 76.57     682.00
 76.67     720.23
 76.77     769.48
 76.87     817.00
 76.97     807.85
 77.07     777.33
 77.17     806.00
 77.27     764.00
 77.37     736.00
 77.47     753.00
 77.57     639.68
 77.67     668.00
 77.77     603.00
 77.87     680.89
 77.97     653.21
 78.07     573.62
 78.17     621.23
 78.27     611.00
 78.37     570.00
 78.47     523.03
 78.57     571.00
 78.67     545.75
 78.77     562.00
 78.87     583.00
 78.97     613.58
 79.07     540.00
 79.17     530.46
 79.27     572.00
 79.37     515.00
 79.47     573.00
 79.57     615.68
 79.67     549.40
 79.77     576.39
 79.87     584.00
 79.97     523.51
 80.07     556.00
 80.17     556.00
 80.27     600.00
 80.37     616.00
 80.47     609.00
 80.57     636.14
 80.67     691.00
 80.77     679.55
 80.87     734.03
 80.97     815.02
 81.07     810.00
 81.17     867.00
 81.27     828.00
 81.37     865.21
 81.47     978.00
 81.57     937.98
 81.67     900.02
 81.77     924.71
 81.87     946.00
 81.97     891.60
 82.07     900.00
 82.17     843.00
 82.27     830.63
 82.37     835.00
 82.47     809.00
 82.57     723.00
 82.67     729.00
 82.77     652.00
 82.87     639.00
 82.97     647.31
 83.07     568.00
 83.17     601.00
 83.27     619.00
 83.37     538.00
 83.47     595.00
 83.57     635.84
 83.67     603.00
 83.77     575.00
 83.87     584.00
 83.97     575.00
 84.07     611.00
 84.17     554.00
 84.27     597.72
 84.37     591.00
 84.47     560.00
 84.57     575.00
 84.67     593.00
 84.77     590.00
 84.87     567.00
 84.97     579.00
 85.07     610.12
 85.17     607.00
 85.27     606.00
 85.37     548.00
 85.47     613.63
 85.57     615.85
 85.67     572.00
 85.77     578.00
 85.87     591.00
 85.97     605.00
 86.07     545.00
 86.17     547.00
 86.27     547.19
 86.37     574.14
 86.47     539.86
 86.57     620.00
 86.67     604.00
 86.77     580.81
 86.87     615.00
 86.97     607.00
 87.07     631.00
 87.17     628.00
 87.27     597.00
 87.37     629.00
 87.47     662.00
 87.57     631.77
 87.67     700.00
 87.77     677.00
 87.87     672.00
 87.97     671.00
 88.07     716.75
 88.17     690.00
 88.27     699.00
 88.37     604.40
 88.47     627.52
 88.57     608.00
 88.67     679.02
 88.77     623.00
 88.87     598.00
 88.97     602.00
 89.07     557.04
 89.17     597.00
 89.27     627.04
 89.37     647.62
 89.47     614.00
 89.57     651.00
 89.67     625.00
 89.77     572.17
 89.87     629.00
 89.97     626.27
 90.07     567.00
 90.17     596.00
 90.27     602.00
 90.37     623.27
 90.47     580.46
 90.57     565.00
 90.67     538.37
 90.77     589.00
 90.87     556.00
 90.97     584.02
 91.07     594.00
 91.17     611.02
 91.27     543.00
 91.37     547.38
 91.47     516.00
 91.57     577.72
 91.67     530.00
 91.77     526.00
 91.87     604.00
 91.97     514.00
 92.07     583.00
 92.17     528.95
 92.27     568.00
 92.37     562.00
 92.47     569.00
 92.57     626.00
 92.67     646.53
 92.77     596.00
 92.87     599.00
 92.97     604.23
 93.07     662.00
 93.17     707.42
 93.27     611.00
 93.37     741.00
 93.47     691.87
 93.57     712.00
 93.67     795.00
 93.77     758.00
 93.87     749.34
 93.97     798.00
 94.07     811.77
 94.17     848.00
 94.27     808.00
 94.37     910.55
 94.47     896.00
 94.57     884.00
 94.67     850.58
 94.77     912.00
 94.87     976.75
 94.97     906.00
 95.07     920.00
 95.17    1042.00
 95.27     993.00
 95.37     968.00
 95.47     926.27
 95.57     867.66
 95.67     929.00
 95.77     863.51
 95.87     852.00
 95.97     781.72
 96.07     837.00
 96.17     767.00
 96.27     740.00
 96.37     695.92
 96.47     750.00
 96.57     783.00
 96.67     739.00
 96.77     810.00
 96.87     790.00
 96.97     860.08
 97.07     917.00
 97.17     941.00
 97.27    1060.00
 97.37    1056.67
 97.47    1168.73
 97.57    1248.00
 97.67    1227.23
 97.77    1370.08
 97.87    1385.00
 97.97    1454.00
 98.07    1573.16
 98.17    1521.07
 98.27    1478.00
 98.37    1481.60
 98.47    1451.23
 98.57    1472.00
 98.67    1329.18
 98.77    1285.00
 98.87    1250.00
 98.97    1109.00
 99.07    1097.00
 99.17    1002.00
 99.27    1054.89
 99.37     947.00
 99.47     910.00
 99.57     927.64
 99.67     981.90
 99.77     963.00
 99.87     985.00
 99.97    1083.38
100.07    1133.00
100.17    1144.70
100.27    1300.15
100.37    1313.00
100.47    1456.00
100.57    1572.00
100.67    1588.07
100.77    1713.00
100.87    1757.67
100.97    1921.00
101.07    1926.00
101.17    1929.00
101.27    2022.00
101.37    1939.00
101.47    2079.28
101.57    1959.00
101.67    1910.29
101.77    1908.00
101.87    1946.00
101.97    1725.00
102.07    1741.00
102.17    1681.00
102.27    1566.53
102.37    1555.00
102.47    1441.00
102.57    1382.00
102.67    1373.85
102.77    1330.00
102.87    1373.32
102.97    1151.00
103.07    1221.00
103.17    1216.00
103.27    1143.79
103.37    1120.00
103.47    1085.00
103.57    1136.70
103.67    1038.00
103.77     966.00
103.87     993.00
103.97     938.43
104.07     960.00
104.17     903.00
104.27     813.92
104.37     732.00
104.47     722.00
104.57     733.84
104.67     708.85
104.77     645.60
104.87     666.00
104.97     628.33
105.07     596.42
105.17     667.00
105.27     639.00
105.37     564.17
105.47     571.66
105.57     513.05
105.67     549.00
105.77     556.00
105.87     541.00
105.97     542.08
106.07     541.00
106.17     541.70
106.27     552.00
106.37     585.00
106.47     594.84
106.57     578.00
106.67     565.37
106.77     604.47
106.87     602.23
106.97     623.00
107.07     643.00
107.17     640.00
107.27     667.00
107.37     660.00
107.47     716.00
107.57     713.17
107.67     718.43
107.77     704.30
107.87     713.74
107.97     776.00
108.07     688.00
108.17     730.09
108.27     773.41
108.37     725.00
108.47     721.00
108.57     684.00
108.67     729.49
108.77     721.00
108.87     732.32
108.97     693.80
109.07     780.23
109.17     704.08
109.27     715.00
109.37     763.00
109.47     707.00
109.57     682.51
109.67     728.00
109.77     754.61
109.87     668.49
109.97     748.00
110.07     712.00
110.17     676.00
110.27     647.03
110.37     693.00
110.47     655.00
110.57     652.00
110.67     704.46
110.77     652.00
110.87     630.36
110.97     631.00
111.07     638.58
111.17     593.42
111.27     605.00
111.37     607.00
111.47     629.89
111.57     524.99
111.67     564.87
111.77     529.99
111.87     558.00
111.97     603.00
112.07     568.00
112.17     584.00
112.27     572.00
112.37     563.00
112.47     577.00
112.57     544.71
112.67     600.00
112.77     543.00
112.87     575.00
112.97     572.00
113.07     566.00
113.17     613.00
113.27     583.00
113.37     567.00
113.47     632.00
113.57     602.00
113.67     594.00
113.77     578.00
113.87     617.00
113.97     642.00
114.07     622.09
114.17     652.00
114.27     694.18
114.37     722.32
114.47     733.00
114.57     779.00
114.67     806.00
114.77     828.00
114.87     834.00
114.97     995.46
115.07     994.00
115.17    1160.00
115.27    1226.00
115.37    1380.84
115.47    1543.00
115.57    1621.83
115.67    1992.00
115.77    2179.59
115.87    2364.00
115.97    2745.00
116.07    3095.00
116.17    3455.00
116.27    3781.00
116.37    4041.00
116.47    4438.01
116.57    4729.00
116.67    5144.17
116.77    5457.00
116.87    5800.45
116.97    6378.00
117.07    6580.00
117.17    6817.34
117.27    6939.00
117.37    7057.78
117.47    7174.00
117.57    7198.77
117.67    7184.67
117.77    7119.95
117.87    6729.00
117.97    6469.86
118.07    6151.70
118.17    5965.09
118.27    5357.00
118.37    5288.48
118.47    4715.00
118.57    4435.96
118.67    4056.00
118.77    3810.00
118.87    3450.00
118.97    3103.00
119.07    2798.00
119.17    2470.00
119.27    2329.96
119.37    2046.00
119.47    1861.11
119.57    1657.00
119.67    1527.60
119.77    1427.00
119.87    1325.00
119.97    1205.03
120.07    1177.00
120.17    1032.00
120.27    1073.00
120.37     860.11
120.47     859.37
120.57     802.00
120.67     797.89
120.77     787.00
120.87     744.00
120.97     700.00
121.07     681.00
121.17     677.00
121.27     683.00
121.37     673.00
121.47     609.00
121.57     618.00
121.67     645.00
121.77     617.16
121.87     643.00
121.97     659.21
122.07     595.00
122.17     689.43
122.27     705.81
122.37     651.30
122.47     680.00
122.57     624.93
122.67     663.47
122.77     651.00
122.87     651.00
122.97     662.00
123.07     637.99
123.17     663.00
123.27     728.44
123.37     709.91
123.47     730.00
123.57     686.00
123.67     724.18
123.77     706.06
123.87     725.00
123.97     673.39
124.07     745.00
124.17     697.00
124.27     714.00
124.37     698.00
124.47     648.26
124.57     688.00
124.67     696.00
124.77     656.00
124.87     641.86
124.97     670.00
