  9.97     609.00
 10.07     573.53
 10.17     586.00
 10.27     589.00
 10.37     583.75
 10.47     596.00
 10.57     595.63
 10.67     595.00
 10.77     620.00
 10.87     582.00
 10.97     552.00
 11.07     611.00
 11.17     527.61
 11.27     572.00
 11.37     611.00
 11.47     563.00
 11.57     583.00
 11.67     601.00
 11.77     590.00
 11.87     655.00
 11.97     634.12
 12.07     673.57
 12.17     719.00
 12.27     742.43
 12.37     666.01
 12.47     675.12
 12.57     615.00
 12.67     548.00
 12.77     543.00
 12.87     588.00
 12.97     592.00
 13.07     551.63
 13.17     550.64
 13.27     548.00
 13.37     522.00
 13.47     611.14
 13.57     635.00
 13.67     538.00
 13.77     521.00
 13.87     562.54
 13.97     567.00
 14.07     540.86
 14.17     555.00
 14.27     591.00
 14.37     564.35
 14.47     556.00
 14.57     547.00
 14.67     558.21
 14.77     571.28
 14.87     563.00
 14.97     608.85
 15.07     550.90
 15.17     534.00
 15.27     555.00
 15.37     581.00
 15.47     564.00
 15.57     574.11
 15.67     545.00
 15.77     587.43
 15.87     523.48
 15.97     529.00
 16.07     552.00
 16.17     520.00
 16.27     556.00
 16.37     606.62
 16.47     544.00
 16.57     622.00
 16.67     522.00
 16.77     550.28
 16.87     583.64
 16.97     582.00
 17.07     566.00
 17.17     562.00
 17.27     550.00
 17.37     555.00
 17.47     540.00
 17.57     583.31
 17.67     577.00
 17.77     605.91
 17.87     545.00
 17.97     530.00
 18.07     573.00
 18.17     604.49
 18.27     545.27
 18.37     563.00
 18.47     557.00
 18.57     578.00
 18.67     559.00
 18.77     575.00
 18.87     595.00
 18.97     606.00
 19.07     576.08
 19.17     590.00
 19.27     545.00
 19.37     514.00
 19.47     531.81
 19.57     567.00
 19.67     544.43
 19.77     537.00
 19.87     538.00
 19.97     575.00
 20.07     545.57
 20.17     572.00
 20.27     567.00
 20.37     561.00
 20.47     541.51
 20.57     533.66
 20.67     558.00
 20.77     504.00
 20.87     510.18
 20.97     520.52
 21.07     563.00
 21.17     558.00
 21.27     559.00
 21.37     538.54
 21.47     519.09
 21.57     546.93
 21.67     497.00
 21.77     527.00
 21.87     549.57
 21.97     550.00
 22.07     560.00
 22.17     576.43
 22.27     519.32
 22.37     521.75
 22.47     562.14
 22.57     594.69
 22.67     568.96
 22.77     513.00
 22.87     552.00
 22.97     562.00
 23.07     586.76
 23.17     579.00
 23.27     542.00
 23.37     516.11
 23.47     553.00
 23.57     512.00
 23.67     559.00
 23.77     539.00
 23.87     530.04
 23.97     585.00
 24.07     515.27
 24.17     571.00
 24.27     507.78
 24.37     574.00
 24.47     605.00
 24.57     558.90
 24.67     600.88
 24.77     624.15
 24.87     636.00
 24.97     646.00
 25.07     546.09
 25.17     606.00
 25.27     570.00
 25.37     564.00
 25.47     566.00
 25.57     513.28
 25.67     572.08
 25.77     537.20
 25.87     502.55
 25.97     584.00
 26.07     550.00
 26.17     574.58
 26.27     558.00
 26.37     541.00
 26.47     563.02
 26.57     537.00
 26.67     574.60
 26.77     540.00
 26.87     570.59
 26.97     560.00
 27.07     543.00
 27.17     549.00
 27.27     555.17
 27.37     579.91
 27.47     589.00
 27.57     580.00
 27.67     529.00
 27.77     546.00
 27.87     623.12
 27.97     614.66
 28.07     812.00
 28.17     860.00
 28.27     949.68
 28.37     952.00
 28.47     808.00
 28.57     761.80
 28.67     681.00
 28.77     728.00
 28.87     794.59
 28.97     872.17
 29.07     845.00
 29.17     711.00
 29.27     659.00
 29.37     586.00
 29.47     595.10
 29.57     605.00
 29.67     622.00
 29.77     601.00
 29.87     598.00
 29.97     533.00
 30.07     536.00
 30.17     543.00
 30.27     529.64
 30.37     526.00
 30.47     541.26
 30.57     508.70
 30.67     541.00
 30.77     600.00
 30.87     596.00
 30.97     619.00
 31.07     563.71
 31.17     582.00
 31.27     578.00
 31.37     520.00
 31.47     521.40
 31.57     528.55
 31.67     539.60
 31.77     535.01
 31.87     492.89
 31.97     566.00
 32.07     500.00
 32.17     488.41
 32.27     532.00
 32.37     563.10
 32.47     563.15
 32.57     563.00
 32.67     535.40
 32.77     538.00
 32.87     569.61
 32.97     526.77
 33.07     530.00
 33.17     577.20
 33.27     562.00
 33.37     542.94
 33.47     568.22
 33.57     602.28
 33.67     646.00
 33.77     718.53
 33.87     857.28
 33.97    1005.00
 34.07    1044.00
 34.17    1017.00
 34.27     861.63
 34.37     723.84
 34.47     676.00
 34.57     563.00
 34.67     557.48
 34.77     543.00
 34.87     514.00
 34.97     531.77
 35.07     516.00
 35.17     524.00
 35.27     518.00
 35.37     502.00
 35.47     529.00
 35.57     521.52
 35.67     541.00
 35.77     490.00
 35.87     506.00
 35.97     509.00
 36.07     476.00
 36.17     505.00
 36.27     519.00
 36.37     515.00
 36.47     483.42
 36.57     467.00
 36.67     537.00
 36.77     542.28
 36.87     495.00
 36.97     497.00
 37.07     542.16
 37.17     499.00
 37.27     464.00
 37.37     484.41
 37.47     505.00
 37.57     504.20
 37.67     517.00
 37.77     518.00
 37.87     529.00
 37.97     500.00
 38.07     494.18
 38.17     481.00
 38.27     536.00
 38.37     487.20
 38.47     487.00
 38.57     477.00
 38.67     537.00
 38.77     517.08
 38.87     485.00
 38.97     473.00
 39.07     487.00
 39.17     529.22
 39.27     513.00
 39.37     538.00
 39.47     514.29
 39.57     496.00
 39.67     475.41
 39.77     499.00
 39.87     470.59
 39.97     525.10
 40.07     490.00
 40.17     518.88
 40.27     490.00
 40.37     475.00
 40.47     464.40
 40.57     513.00
 40.67     498.00
 40.77     495.00
 40.87     498.00
 40.97     491.00
 41.07     519.26
 41.17     513.00
 41.27     536.00
 41.37     486.00
 41.47     531.49
 41.57     536.00
 41.67     507.00
 41.77     507.00
 41.87     531.00
 41.97     497.04
 42.07     482.00
 42.17     499.00
 42.27     556.00
 42.37     588.82
 42.47     554.80
 42.57     627.25
 42.67     662.01
 42.77     667.72
 42.87     574.00
 42.97     540.00
 43.07     595.51
 43.17     496.00
 43.27     491.00
 43.37     521.05
 43.47     516.00
 43.57     431.00
 43.67     496.00
 43.77     459.93
 43.87     507.81
 43.97     508.00
 44.07     505.00
 44.17     468.45
 44.27     505.51
 44.37     540.12
 44.47     525.00
 44.57     489.00
 44.67     509.24
 44.77     481.26
 44.87     579.00
 44.97     463.29
 45.07     534.00
 45.17     480.23
 45.27     468.41
 45.37     475.29
 45.47     536.51
 45.57     488.00
 45.67     529.00
 45.77     505.00
 45.87     474.92
 45.97     500.00
 46.07     484.00
 46.17     557.00
 46.27     538.00
 46.37     499.00
 46.47     482.00
 46.57     498.00
 46.67     494.00
 46.77     534.00
 46.87     495.80
 46.97     525.00
 47.07     490.00
 47.17     453.00
 47.27     529.00
 47.37     557.00
 47.47     545.00
 47.57     529.70
 47.67     560.00
 47.77     568.00
 47.87     601.00
 47.97     569.91
 48.07     578.83
 48.17     536.00
 48.27     594.00
 48.37     576.00
 48.47     531.00
 48.57     559.00
 48.67     543.88
 48.77     512.00
 48.87     551.00
 48.97     549.00
 49.07     524.68
 49.17     570.29
 49.27     618.00
 49.37     649.00
 49.47     714.00
 49.57     712.00
 49.67     897.00
 49.77    1112.00
 49.87    1312.00
 49.97    1783.62
 50.07    2139.00
 50.17    2470.00
 50.27    2641.01
 50.37    2362.77
 50.47    2054.00
 50.57    1551.00
 50.67    1112.00
 50.77     872.79
 50.87     724.56
 50.97     631.05
 51.07     658.75
 51.17     585.00
 51.27     623.00
 51.37     547.17
 51.47     580.88
 51.57     596.39
 51.67     528.00
 51.77     543.00
 51.87     537.43
 51.97     563.80
 52.07     500.59
 52.17     530.00
 52.27     487.65
 52.37     549.79
 52.47     536.29
 52.57     560.00
 52.67     538.70
 52.77     538.24
 52.87     635.83
 52.97     709.00
 53.07     754.00
 53.17     936.00
 53.27    1020.00
 53.37    1102.00
 53.47    1166.00
 53.57    1227.00
 53.67    1131.00
 53.77    1041.00
 53.87     939.11
 53.97     833.12
 54.07     681.00
 54.17     598.00
 54.27     615.83
 54.37     584.00
 54.47     564.00
 54.57     561.00
 54.67     563.00
 54.77     521.34
 54.87     582.00
 54.97     555.00
 55.07     513.81
 55.17     530.00
 55.27     544.00
 55.37     563.00
 55.47     539.00
 55.57     522.17
 55.67     559.00
 55.77     588.30
 55.87     570.00
 55.97     602.00
 56.07     641.00
 56.17     698.79
 56.27     834.00
 56.37     984.00
 56.47    1240.00
 56.57    1699.00
 56.67    2015.00
 56.77    2327.00
 56.87    2599.90
 56.97    2569.00
 57.07    2478.65
 57.17    2188.00
 57.27    1748.21
 57.37    1383.50
 57.47    1134.30
 57.57     864.00
 57.67     841.00
 57.77     650.61
 57.87     661.80
 57.97     632.00
 58.07     664.00
 58.17     720.34
 58.27     779.00
 58.37     882.00
 58.47     965.00
 58.57    1118.00
 58.67    1210.00
 58.77    1417.00
 58.87    1484.00
 58.97    1586.00
 59.07    1591.00
 59.17    1635.96
 59.27    1544.00
 59.37    1344.00
 59.47    1312.00
 59.57    1203.27
 59.67    1122.00
 59.77    1152.00
 59.87    1230.00
 59.97    1243.75
 60.07    1425.00
 60.17    1526.00
 60.27    1606.60
 60.37    1521.63
 60.47    1486.00
 60.57    1214.99
 60.67    1106.00
 60.77     912.00
 60.87     775.14
 60.97     742.00
 61.07     694.02
 61.17     629.00
 61.27     583.49
 61.37     634.00
 61.47     676.00
 61.57     697.47
 61.67     797.00
 61.77     927.00
 61.87    1115.00
 61.97    1218.00
 62.07    1377.68
 62.17    1449.00
 62.27    1378.00
 62.37    1319.00
 62.47    1199.00
 62.57    1031.00
 62.67    1007.47
 62.77     781.11
 62.87     733.00
 62.97     619.02
 63.07     562.23
 63.17     549.73
 63.27     579.00
 63.37     572.36
 63.47     585.99
 63.57     577.00
 63.67     562.73
 63.77     566.00
 63.87     631.11
 63.97     646.18
 64.07     649.00
 64.17     763.10
 64.27     775.00
 64.37     877.00
 64.47     923.00
 64.57     980.10
 64.67    1012.89
 64.77     964.69
 64.87    1014.00
 64.97     959.94
 65.07     865.00
 65.17     795.00
 65.27     725.98
 65.37     701.00
 65.47     661.00
 65.57     650.00
 65.67     589.00
 65.77     581.00
 65.87     570.50
 65.97     577.00
 66.07     563.04
 66.17     532.00
 66.27     535.00
 66.37     486.00
 66.47     597.92
 66.57     527.66
 66.67     579.15
 66.77     531.97
 66.87     565.00
 66.97     551.00
 67.07     642.00
 67.17     629.80
 67.27     702.79
 67.37     879.61
 67.47     976.00
 67.57    1205.00
 67.67    1415.00
 67.77    1690.00
 67.87    1983.00
 67.97    2200.00
 68.07    2392.00
 68.17    2378.27
 68.27    2436.00
 68.37    2146.00
 68.47    1903.00
 68.57    1630.00
 68.67    1408.00
 68.77    1116.00
 68.87     944.00
 68.97     817.00
 69.07     730.26
 69.17     673.00
 69.27     655.00
 69.37     621.00
 69.47     631.00
 69.57     568.17
 69.67     572.00
 69.77     572.00
 69.87     604.00
 69.97     577.00
 70.07     548.00
 70.17     562.00
 70.27     534.00
 70.37     535.00
 70.47     520.41
 70.57     587.00
 70.67     590.00
 70.77     569.00
 70.87     597.26
 70.97     605.00
 71.07     635.00
 71.17     657.00
 71.27     743.00
 71.37     892.74
 71.47     953.00
 71.57    1186.00
 71.67    1371.00
 71.77    1592.05
 71.87    1698.00
 71.97    1839.00
 72.07    2003.00
 72.17    1843.64
 72.27    1806.49
 72.37    1731.00
 72.47    1584.00
 72.57    1369.00
 72.67    1252.21
 72.77    1187.00
 72.87    1005.00
 72.97     959.00
 73.07     967.12
 73.17     764.00
 73.27     787.95
 73.37     695.00
 73.47     689.33
 73.57     588.00
 73.67     651.36
 73.77     637.25
 73.87     598.00
 73.97     591.00
 74.07     561.00
 74.17     591.00
 74.27     566.41
 74.37     612.00
 74.47     600.00
 74.57     624.00
 74.67     527.95
 74.77     570.16
 74.87     610.49
 74.97     582.00
 75.07     604.00
 75.17     565.00
 75.27     575.00
 75.37     585.67
 75.47     536.84
 75.57     532.00
 75.67     556.32
 75.77     553.00
 75.87     586.00
 75.97     623.00
 76.07     641.74
 76.17     656.68
 76.27     706.00
 76.37     710.00
 76.47     741.04
 76.57     669.00
 76.67     739.00
 76.77     634.00
 76.87     638.00
 76.97     694.00
 77.07     588.11
 77.17     621.28
 77.27     595.00
 77.37     527.00
 77.47     519.58
 77.57     536.00
 77.67     521.00
 77.77     535.00
 77.87     539.28
 77.97     503.58
 78.07     521.22
 78.17     516.26
 78.27     549.21
 78.37     521.46
 78.47     482.52
 78.57     520.98
 78.67     515.00
 78.77     566.70
 78.87     511.00
 78.97     560.67
 79.07     497.04
 79.17     481.00
 79.27     491.27
 79.37     472.00
 79.47     551.00
 79.57     561.00
 79.67     509.00
 79.77     486.00
 79.87     573.28
 79.97     529.00
 80.07     529.00
 80.17     553.00
 80.27     554.00
 80.37     594.00
 80.47     550.39
 80.57     599.00
 80.67     631.17
 80.77     617.00
 80.87     703.00
 80.97     705.00
 81.07     655.16
 81.17     741.27
 81.27     740.00
 81.37     746.55
 81.47     716.03
 81.57     793.00
 81.67     742.00
 81.77     734.00
 81.87     745.06
 81.97     710.00
 82.07     699.00
 82.17     661.63
 82.27     651.41
 82.37     650.00
 82.47     584.00
 82.57     570.74
 82.67     570.00
 82.77     539.00
 82.87     549.00
 82.97     557.00
 83.07     588.31
 83.17     556.00
 83.27     513.37
 83.37     535.00
 83.47     560.69
 83.57     550.00
 83.67     543.63
 83.77     560.19
 83.87     572.00
 83.97     620.15
 84.07     610.92
 84.17     548.95
 84.27     597.00
 84.37     551.00
 84.47     547.00
 84.57     502.00
 84.67     540.20
 84.77     557.00
 84.87     532.00
 84.97     557.25
 85.07     498.00
 85.17     552.42
 85.27     554.00
 85.37     564.98
 85.47     498.00
 85.57     544.00
 85.67     555.32
 85.77     485.00
 85.87     487.95
 85.97     507.51
 86.07     534.00
 86.17     508.00
 86.27     534.59
 86.37     522.00
 86.47     554.00
 86.57     606.00
 86.67     582.01
 86.77     558.00
 86.87     558.00
 86.97     563.81
 87.07     560.00
 87.17     632.00
 87.27     633.00
 87.37     572.46
 87.47     604.52
 87.57     675.00
 87.67     619.00
 87.77     654.00
 87.87     610.00
 87.97     578.08
 88.07     556.00
 88.17     626.01
 88.27     619.65
 88.37     564.00
 88.47     576.07
 88.57     604.00
 88.67     528.88
 88.77     583.00
 88.87     597.00
 88.97     613.61
 89.07     589.00
 89.17     567.00
 89.27     610.18
 89.37     649.00
 89.47     624.27
 89.57     575.00
 89.67     556.00
 89.77     547.35
 89.87     622.75
 89.97     545.65
 90.07     557.00
 90.17     536.00
 90.27     527.00
 90.37     547.00
 90.47     559.49
 90.57     562.17
 90.67     547.04
 90.77     539.66
 90.87     524.00
 90.97     518.00
 91.07     548.00
 91.17     502.00
 91.27     497.00
 91.37     566.01
 91.47     486.00
 91.57     495.00
 91.67     500.00
 91.77     552.92
 91.87     529.00
 91.97     554.00
 92.07     524.00
 92.17     546.44
 92.27     595.00
 92.37     539.00
 92.47     606.42
 92.57     633.00
 92.67     639.00
 92.77     693.28
 92.87     646.08
 92.97     756.68
 93.07     782.08
 93.17     780.17
 93.27     802.69
 93.37     786.93
 93.47     847.09
 93.57     902.00
 93.67     783.00
 93.77     782.00
 93.87     816.62
 93.97     866.00
 94.07     834.31
 94.17     865.00
 94.27     859.13
 94.37     866.00
 94.47     893.00
 94.57     894.92
 94.67     940.00
 94.77     927.69
 94.87     952.91
 94.97     915.00
 95.07     903.00
 95.17     889.90
 95.27     871.00
 95.37     818.32
 95.47     786.00
 95.57     737.00
 95.67     753.00
 95.77     690.80
 95.87     674.16
 95.97     634.05
 96.07     696.00
 96.17     694.07
 96.27     666.00
 96.37     691.00
 96.47     830.00
 96.57     843.00
 96.67     909.00
 96.77     942.15
 96.87    1054.49
 96.97    1145.00
 97.07    1118.49
 97.17    1241.00
 97.27    1274.32
 97.37    1419.00
 97.47    1401.00
 97.57    1452.37
 97.67    1496.30
 97.77    1410.29
 97.87    1314.53
 97.97    1419.00
 98.07    1250.00
 98.17    1187.14
 98.27    1167.00
 98.37    1150.00
 98.47    1046.00
 98.57     974.67
 98.67     819.00
 98.77     790.97
 98.87     823.10
 98.97     806.00
 99.07     817.03
 99.17     868.42
 99.27     891.34
 99.37     931.00
 99.47     907.00
 99.57    1085.00
 99.67    1134.00
 99.77    1226.00
 99.87    1293.00
 99.97    1465.01
100.07    1520.64
100.17    1694.00
100.27    1874.00
100.37    1846.00
100.47    1965.53
100.57    1985.00
100.67    2152.29
100.77    2122.43
100.87    2106.00
100.97    2061.92
101.07    2035.00
101.17    1983.00
101.27    1894.00
101.37    1742.22
101.47    1663.00
101.57    1655.54
101.67    1494.00
101.77    1455.05
101.87    1428.24
101.97    1266.00
102.07    1277.00
102.17    1197.00
102.27    1171.00
102.37    1122.00
102.47    1110.00
102.57    1077.00
102.67    1025.00
102.77    1054.87
102.87    1063.00
102.97     962.00
103.07     957.00
103.17     891.00
103.27     910.00
103.37     808.00
103.47     834.00
103.57     811.00
103.67     716.00
103.77     678.45
103.87     672.22
103.97     644.47
104.07     562.26
104.17     628.00
104.27     541.00
104.37     625.00
104.47     591.27
104.57     544.00
104.67     552.00
104.77     563.00
104.87     518.00
104.97     531.00
105.07     509.68
105.17     519.00
105.27     554.00
105.37     525.00
105.47     569.77
105.57     504.00
105.67     503.06
105.77     504.00
105.87     565.00
105.97     526.00
106.07     550.00
106.17     589.00
106.27     577.00
106.37     601.00
106.47     573.00
106.57     577.00
106.67     607.45
106.77     646.00
106.87     648.00
106.97     624.00
107.07     713.28
107.17     649.00
107.27     621.00
107.37     723.47
107.47     705.00
107.57     710.00
107.67     668.00
107.77     728.00
107.87     684.00
107.97     696.95
108.07     658.00
108.17     734.90
108.27     610.00
108.37     677.00
108.47     659.00
108.57     667.00
108.67     675.00
108.77     691.00
108.87     729.52
108.97     722.64
109.07     713.49
109.17     643.00
109.27     621.40
109.37     622.00
109.47     646.00
109.57     640.00
109.67     676.00
109.77     594.00
109.87     581.00
109.97     591.85
110.07     623.35
110.17     542.88
110.27     549.01
110.37     596.00
110.47     524.00
110.57     558.00
110.67     521.00
110.77     547.00
110.87     583.00
110.97     505.00
111.07     526.00
111.17     508.00
111.27     531.00
111.37     525.00
111.47     528.00
111.57     525.00
111.67     542.00
111.77     561.00
111.87     573.98
111.97     520.00
112.07     527.26
112.17     541.24
112.27     588.00
112.37     581.00
112.47     572.00
112.57     607.94
112.67     636.00
112.77     596.00
112.87     653.00
112.97     644.00
113.07     652.00
113.17     687.00
113.27     681.95
113.37     724.00
113.47     739.58
113.57     799.00
113.67     863.00
113.77     890.00
113.87     920.82
113.97     931.00
114.07    1046.00
114.17    1033.10
114.27    1184.00
114.37    1276.88
114.47    1376.10
114.57    1362.00
114.67    1537.23
114.77    1657.00
114.87    1788.00
114.97    2118.00
115.07    2240.00
115.17    2534.00
115.27    2696.00
115.37    2949.63
115.47    3214.43
115.57    3524.14
115.67    3888.00
115.77    4227.00
115.87    4777.40
115.97    4968.00
116.07    5373.98
116.17    5774.64
116.27    6226.00
116.37    6523.00
116.47    6874.00
116.57    7051.00
116.67    7008.00
116.77    7145.00
116.87    7100.84
116.97    6943.00
117.07    6723.00
117.17    6453.00
117.27    6048.39
117.37    5868.93
117.47    5329.00
117.57    4966.00
117.67    4758.00
117.77    4500.00
117.87    4032.00
117.97    3423.85
118.07    3163.00
118.17    2914.00
118.27    2441.00
118.37    2188.00
118.47    1928.00
118.57    1722.12
118.67    1577.17
118.77    1367.00
118.87    1192.00
118.97    1166.00
119.07    1077.62
119.17     878.00
119.27     836.00
119.37     822.76
119.47     743.00
119.57     698.00
119.67     646.16
119.77     703.71
119.87     652.55
119.97     607.07
120.07     578.00
120.17     604.80
120.27     554.80
120.37     577.00
120.47     521.00
120.57     535.00
120.67     562.21
120.77     524.89
120.87     558.00
120.97     565.85
121.07     563.00
121.17     554.00
121.27     587.00
121.37     570.00
121.47     574.00
121.57     545.00
121.67     584.00
121.77     556.24
121.87     604.34
121.97     600.68
122.07     590.00
122.17     565.79
122.27     626.00
122.37     622.00
122.47     627.00
122.57     642.00
122.67     593.00
122.77     628.00
122.87     649.00
122.97     666.00
123.07     683.03
123.17     668.38
123.27     658.03
123.37     690.00
123.47     654.55
123.57     654.27
123.67     624.00
123.77     595.78
123.87     615.00
123.97     582.76
124.07     613.00
124.17     632.00
124.27     594.65
124.37     632.11
124.47     570.00
124.57     616.00
124.67     588.00
124.77     582.00
124.87     526.19
124.97     590.00
