  9.97     606.00
 10.07     523.01
 10.17     582.77
 10.27     577.00
 10.37     532.33
 10.47     559.65
 10.57     577.45
 10.67     593.00
 10.77     535.58
 10.87     563.68
 10.97     577.00
 11.07     591.00
 11.17     573.34
 11.27     574.00
 11.37     612.00
 11.47     551.00
 11.57     614.00
 11.67     639.00
 11.77     598.33
 11.87     625.00
 11.97     603.52
 12.07     708.95
 12.17     697.00
 12.27     756.56
 12.37     571.00
 12.47     633.43
 12.57     611.00
 12.67     561.16
 12.77     596.00
 12.87     508.00
 12.97     539.00
 13.07     589.14
 13.17     570.39
 13.27     582.00
 13.37     568.00
 13.47     550.00
 13.57     584.00
 13.67     579.00
 13.77     603.86
 13.87     570.34
 13.97     572.16
 14.07     526.00
 14.17     568.00
 14.27     557.54
 14.37     531.35
 14.47     581.00
 14.57     616.13
 14.67     541.00
 14.77     545.56
 14.87     514.00
 14.97     593.00
 15.07     577.00
 15.17     568.00
 15.27     550.22
 15.37     584.00
 15.47     557.00
 15.57     599.00
 15.67     577.00
 15.77     608.54
 15.87     548.32
 15.97     529.00
 16.07     576.00
 16.17     541.52
 16.27     558.00
 16.37     582.00
 16.47     554.75
 16.57     620.00
 16.67     553.48
 16.77     569.00
 16.87     610.00
 16.97     569.00
 17.07     563.00
 17.17     562.00
 17.27     576.00
 17.37     551.00
 17.47     547.00
 17.57     624.00
 17.67     587.00
 17.77     594.35
 17.87     571.00
 17.97     569.00
 18.07     512.00
 18.17     556.00
 18.27     564.00
 18.37     585.00
 18.47     552.34
 18.57     542.77
 18.67     579.00
 18.77     571.00
 18.87     523.69
 18.97     566.30
 19.07     605.00
 19.17     587.89
 19.27     559.00
 19.37     522.00
 19.47     520.32
 19.57     596.00
 19.67     522.00
 19.77     544.00
 19.87     579.45
 19.97     568.83
 20.07     593.00
 20.17     515.93
 20.27     576.00
 20.37     568.00
 20.47     551.72
 20.57     549.00
 20.67     553.00
 20.77     525.00
 20.87     582.00
 20.97     584.02
 21.07     571.00
 21.17     552.00
 21.27     580.17
 21.37     578.00
 21.47     549.80
 21.57     533.48
 21.67     543.00
 21.77     520.05
 21.87     573.56
 21.97     526.59
 22.07     530.00
 22.17     574.00
 22.27     519.42
 22.37     549.00
 22.47     582.32
 22.57     587.00
 22.67     549.00
 22.77     548.00
 22.87     544.00
 22.97     518.00
 23.07     527.00
 23.17     585.46
 23.27     545.00
 23.37     546.97
 23.47     591.00
 23.57     581.00
 23.67     518.00
 23.77     508.00
 23.87     552.00
 23.97     510.26
 24.07     564.00
 24.17     561.00
 24.27     580.48
 24.37     551.14
 24.47     618.00
 24.57     576.98
 24.67     611.00
 24.77     618.00
 24.87     635.00
 24.97     642.28
 25.07     608.00
 25.17     606.18
 25.27     538.91
 25.37     541.00
 25.47     572.00
 25.57     534.00
 25.67     553.00
 25.77     509.96
 25.87     565.47
 25.97     574.29
 26.07     528.00
 26.17     541.00
 26.27     588.44
 26.37     546.00
 26.47     528.72
 26.57     516.00
 26.67     517.00
 26.77     527.00
 26.87     614.00
 26.97     540.00
 27.07     547.72
 27.17     559.01
 27.27     576.00
 27.37     523.00
 27.47     584.00
 27.57     567.00
 27.67     574.63
 27.77     586.00
 27.87     580.01
 27.97     670.00
 28.07     770.00
 28.17     862.00
 28.27     956.93
 28.37     917.00
 28.47     816.00
 28.57     730.00
 28.67     673.78
 28.77     744.00
 28.87     810.00
 28.97     814.10
 29.07     807.00
 29.17     703.00
 29.27     658.45
 29.37     639.00
 29.47     571.45
 29.57     655.00
 29.67     594.00
 29.77     608.00
 29.87     547.49
 29.97     603.00
 30.07     611.00
 30.17     594.81
 30.27     554.53
 30.37     514.16
 30.47     563.00
 30.57     546.47
 30.67     580.00
 30.77     606.00
 30.87     622.16
 30.97     595.00
 31.07     560.45
 31.17     561.00
 31.27     529.00
 31.37     575.53
 31.47     545.09
 31.57     520.00
 31.67     516.00
 31.77     516.93
 31.87     516.00
 31.97     535.00
 32.07     545.00
 32.17     515.75
 32.27     540.00
 32.37     556.00
 32.47     598.00
 32.57     542.56
 32.67     526.00
 32.77     521.00
 32.87     533.00
 32.97     534.00
 33.07     504.00
 33.17     578.00
 33.27     499.81
 33.37     556.00
 33.47     540.00
 33.57     603.00
 33.67     660.00
 33.77     719.00
 33.87     883.00
 33.97    1011.00
 34.07    1011.43
 34.17     989.74
 34.27     899.00
 34.37     697.00
 34.47     625.00
 34.57     584.51
 34.67     535.85
 34.77     535.23
 34.87     548.25
 34.97     564.90
 35.07     514.00
 35.17     518.00
 35.27     498.00
 35.37     495.00
 35.47     556.00
 35.57     510.00
 35.67     559.00
 35.77     509.00
 35.87     507.00
 35.97     510.90
 36.07     541.77
 36.17     530.00
 36.27     517.00
 36.37     526.00
 36.47     510.65
 36.57     558.00
 36.67     537.05
 36.77     487.00
 36.87     479.00
 36.97     493.00
 37.07     545.00
 37.17     511.00
 37.27     526.33
 37.37     522.23
 37.47     504.41
 37.57     485.64
 37.67     528.00
 37.77     531.00
 37.87     554.00
 37.97     544.75
 38.07     549.00
 38.17     547.81
 38.27     498.00
 38.37     547.14
 38.47     487.65
 38.57     529.00
 38.67     523.80
 38.77     485.70
 38.87     491.00
 38.97     509.00
 39.07     549.67
 39.17     509.90
 39.27     515.00
 39.37     543.00
 39.47     501.00
 39.57     532.00
 39.67     502.42
 39.77     487.00
 39.87     522.00
 39.97     516.00
 40.07     550.65
 40.17     549.81
 40.27     550.67
 40.37     483.00
 40.47     533.00
 40.57     510.07
 40.67     488.00
 40.77     480.00
 40.87     488.03
 40.97     485.00
 41.07     512.42
 41.17     487.00
 41.27     483.00
 41.37     504.19
 41.47     460.00
 41.57     449.00
 41.67     473.20
 41.77     467.00
 41.87     487.30
 41.97     515.00
 42.07     558.74
 42.17     514.00
 42.27     538.00
 42.37     588.00
 42.47     556.00
 42.57     584.74
 42.67     637.64
 42.77     604.51
 42.87     595.50
 42.97     555.00
 43.07     563.00
 43.17     504.00
 43.27     487.00
 43.37     505.00
 43.47     513.00
 43.57     497.00
 43.67     551.50
 43.77     484.81
 43.87     527.00
 43.97     510.61
 44.07     463.30
 44.17     526.00
 44.27     508.50
 44.37     500.00
 44.47     516.00
 44.57     508.00
 44.67     541.00
 44.77     469.77
 44.87     504.00
 44.97     515.00
 45.07     507.00
 45.17     503.72
 45.27     492.00
 45.37     537.75
 45.47     507.00
 45.57     512.00
 45.67     520.00
 45.77     523.00
 45.87     529.00
 45.97     518.00
 46.07     510.27
 46.17     493.00
 46.27     544.51
 46.37     485.00
 46.47     508.00
 46.57     498.00
 46.67     505.00
 46.77     492.94
 46.87     517.04
 46.97     489.46
 47.07     491.00
 47.17     502.50
 47.27     529.00
 47.37     506.00
 47.47     512.00
 47.57     606.00
 47.67     566.00
 47.77     538.00
 47.87     571.13
 47.97     626.00
 48.07     540.07
 48.17     559.00
 48.27     571.00
 48.37     545.44
 48.47     539.00
 48.57     509.00
 48.67     525.00
 48.77     513.48
 48.87     566.47
 48.97     547.00
 49.07     558.00
 49.17     559.00
 49.27     622.00
 49.37     699.00
 49.47     724.57
 49.57     754.23
 49.67     879.00
 49.77    1152.00
 49.87    1421.00
 49.97    1832.00
 50.07    2138.45
 50.17    2561.00
 50.27    2509.00
 50.37    2320.00
 50.47    1886.00
 50.57    1506.00
 50.67    1073.00
 50.77     838.99
 50.87     688.65
 50.97     670.00
 51.07     595.12
 51.17     608.52
 51.27     589.00
 51.37     610.62
 51.47     600.07
 51.57     599.00
 51.67     570.00
 51.77     550.00
 51.87     496.29
 51.97     519.00
 52.07     544.00
 52.17     525.87
 52.27     534.17
 52.37     513.44
 52.47     583.00
 52.57     574.00
 52.67     594.00
 52.77     597.00
 52.87     658.00
 52.97     718.12
 53.07     774.99
 53.17     815.65
 53.27     947.26
 53.37    1092.97
 53.47    1223.41
 53.57    1241.00
 53.67    1120.99
 53.77     967.00
 53.87     907.00
 53.97     719.00
 54.07     642.15
 54.17     581.22
 54.27     570.00
 54.37     550.00
 54.47     550.00
 54.57     558.63
 54.67     551.00
 54.77     561.70
 54.87     552.78
 54.97     510.00
 55.07     546.00
 55.17     561.00
 55.27     561.20
 55.37     566.00
 55.47     588.83
 55.57     528.59
 55.67     554.34
 55.77     617.70
 55.87     621.40
 55.97     609.00
 56.07     670.89
 56.17     717.00
 56.27     830.21
 56.37    1044.00
 56.47    1271.00
 56.57    1731.00
 56.67    2098.00
 56.77    2539.59
 56.87    2663.00
 56.97    2652.73
 57.07    2344.44
 57.17    2168.00
 57.27    1730.78
 57.37    1305.00
 57.47    1086.00
 57.57     871.00
 57.67     804.11
 57.77     747.00
 57.87     683.00
 57.97     665.00
 58.07     678.00
 58.17     750.00
 58.27     818.00
 58.37     896.00
 58.47     978.00
 58.57    1126.00
 58.67    1314.84
 58.77    1438.00
 58.87    1564.67
 58.97    1595.60
 59.07    1680.71
 59.17    1668.00
 59.27    1457.00
 59.37    1416.30
 59.47    1225.58
 59.57    1174.00
 59.67    1169.00
 59.77    1156.00
 59.87    1212.00
 59.97    1303.34
 60.07    1487.00
 60.17    1571.00
 60.27    1528.00
 60.37    1508.27
 60.47    1422.32
 60.57    1362.00
 60.67    1148.00
 60.77     944.84
 60.87     754.00
 60.97     712.00
 61.07     688.61
 61.17     649.00
 61.27     659.06
 61.37     659.18
 61.47     687.00
 61.57     755.00
 61.67     775.82
 61.77     906.00
 61.87    1122.44
 61.97    1174.00
 62.07    1335.00
 62.17    1442.00
 62.27    1438.00
 62.37    1335.00
 62.47    1285.50
 62.57    1041.00
 62.67     924.00
 62.77     781.00
 62.87     705.86
 62.97     624.00
 63.07     582.00
 63.17     582.34
 63.27     522.90
 63.37     595.89
 63.47     578.00
 63.57     579.00
 63.67     535.77
 63.77     618.00
 63.87     633.00
 63.97     662.54
 64.07     634.20
 64.17     728.00
 64.27     845.29
 64.37     846.00
 64.47     992.00
 64.57    1005.00
 64.67    1030.00
 64.77     984.00
 64.87     917.80
 64.97     910.00
 65.07     888.93
 65.17     793.00
 65.27     718.00
 65.37     689.00
 65.47     688.93
 65.57     611.00
 65.67     626.00
 65.77     585.78
 65.87     527.00
 65.97     563.00
 66.07     560.88
 66.17     544.73
 66.27     582.00
 66.37     536.20
 66.47     524.00
 66.57     559.86
 66.67     538.00
 66.77     610.00
 66.87     568.00
 66.97     613.00
 67.07     588.36
 67.17     646.00
 67.27     745.00
 67.37     856.00
 67.47     942.00
 67.57    1209.49
 67.67    1471.01
 67.77    1749.00
 67.87    1997.00
 67.97    2159.56
 68.07    2374.00
 68.17    2357.00
 68.27    2317.00
 68.37    2088.94
 68.47    1775.48
 68.57    1507.48
 68.67    1297.84
 68.77    1015.49
 68.87     875.00
 68.97     818.00
 69.07     739.84
 69.17     688.00
 69.27     632.00
 69.37     623.00
 69.47     553.14
 69.57     575.21
 69.67     609.53
 69.77     584.69
 69.87     603.00
 69.97     584.00
 70.07     605.00
 70.17     601.36
 70.27     521.92
 70.37     598.50
 70.47     579.41
 70.57     599.33
 70.67     559.00
 70.77     569.72
 70.87     573.00
 70.97     573.09
 71.07     613.00
 71.17     696.00
 71.27     758.00
 71.37     877.00
 71.47    1067.00
 71.57    1226.00
 71.67    1444.08
 71.77    1603.00
 71.87    1804.28
 71.97    1853.00
 72.07    1909.96
 72.17    1889.00
 72.27    1730.58
 72.37    1613.16
 72.47    1565.00
 72.57    1322.69
 72.67    1229.00
 72.77    1121.43
 72.87     974.00
 72.97     983.00
 73.07     825.00
 73.17     796.08
 73.27     751.00
 73.37     707.00
 73.47     653.46
 73.57     596.00
 73.67     560.00
 73.77     597.15
 73.87     579.00
 73.97     554.12
 74.07     631.00
 74.17     606.00
 74.27     588.77
 74.37     580.00
 74.47     544.03
 74.57     578.00
 74.67     558.04
 74.77     628.00
 74.87     566.65
 74.97     640.00
 75.07     588.17
 75.17     546.19
 75.27     580.00
 75.37     530.00
 75.47     530.00
 75.57     569.00
 75.67     515.96
 75.77     547.25
 75.87     611.51
 75.97     594.09
 76.07     587.24
 76.17     600.11
 76.27     662.90
 76.37     707.00
 76.47     640.00
 76.57     654.38
 76.67     660.68
 76.77     736.00
 76.87     653.00
 76.97     631.00
 77.07     650.00
 77.17     636.00
 77.27     576.32
 77.37     543.00
 77.47     534.67
 77.57     561.93
 77.67     563.92
 77.77     510.00
 77.87     484.00
 77.97     537.00
 78.07     537.00
 78.17     502.50
 78.27     494.08
 78.37     497.00
 78.47     543.00
 78.57     506.00
 78.67     547.00
 78.77     525.37
 78.87     546.26
 78.97     515.00
 79.07     505.83
 79.17     524.00
 79.27     542.00
 79.37     539.00
 79.47     520.57
 79.57     508.00
 79.67     502.00
 79.77     526.00
 79.87     574.80
 79.97     527.98
 80.07     526.00
 80.17     516.00
 80.27     530.00
 80.37     558.00
 80.47     578.00
 80.57     571.00
 80.67     591.00
 80.77     673.00
 80.87     641.00
 80.97     675.06
 81.07     761.22
 81.17     701.00
 81.27     752.04
 81.37     740.00
 81.47     727.00
 81.57     742.00
 81.67     722.00
 81.77     716.00
 81.87     663.65
 81.97     689.24
 82.07     678.00
 82.17     694.00
 82.27     617.00
 82.37     625.39
 82.47     586.00
 82.57     553.00
 82.67     567.00
 82.77     563.51
 82.87     572.00
 82.97     577.51
 83.07     572.00
 83.17     597.04
 83.27     519.00
 83.37     549.00
 83.47     514.05
 83.57     554.82
 83.67     570.00
 83.77     603.00
 83.87     567.00
 83.97     569.00
 84.07     601.00
 84.17     551.00
 84.27     539.00
 84.37     593.27
 84.47     569.00
 84.57     547.00
 84.67     517.15
 84.77     529.00
 84.87     539.00
 84.97     545.53
 85.07     573.74
 85.17     529.10
 85.27     525.42
 85.37     489.65
 85.47     563.39
 85.57     553.00
 85.67     498.64
 85.77     528.00
 85.87     508.00
 85.97     536.00
 86.07     557.00
 86.17     503.41
 86.27     499.00
 86.37     520.00
 86.47     575.39
 86.57     587.02
 86.67     601.00
 86.77     580.00
 86.87     626.76
 86.97     626.12
 87.07     620.00
 87.17     629.00
 87.27     656.00
 87.37     671.80
 87.47     651.00
 87.57     582.43
 87.67     639.00
 87.77     628.00
 87.87     629.16
 87.97     619.51
 88.07     557.88
 88.17     604.00
 88.27     615.00
 88.37     571.02
 88.47     539.62
 88.57     553.95
 88.67     579.00
 88.77     577.00
 88.87     588.00
 88.97     562.24
 89.07     606.00
 89.17     633.00
 89.27     620.00
 89.37     553.44
 89.47     582.05
 89.57     582.00
 89.67     619.52
 89.77     625.00
 89.87     588.00
 89.97     576.00
 90.07     573.00
 90.17     498.00
 90.27     561.79
 90.37     497.00
 90.47     513.97
 90.57     539.00
 90.67     533.71
 90.77     488.00
 90.87     516.11
 90.97     486.00
 91.07     498.00
 91.17     527.00
 91.27     524.00
 91.37     563.20
 91.47     534.00
 91.57     565.00
 91.67     536.00
 91.77     496.20
 91.87     546.00
 91.97     583.00
 92.07     559.00
 92.17     564.39
 92.27     542.59
 92.37     606.00
 92.47     589.37
 92.57     645.57
 92.67     691.35
 92.77     687.00
 92.87     714.00
 92.97     725.82
 93.07     740.80
 93.17     733.50
 93.27     773.44
 93.37     850.00
 93.47     753.79
 93.57     799.00
 93.67     892.00
 93.77     794.36
 93.87     864.00
 93.97     843.00
 94.07     861.00
 94.17     798.22
 94.27     821.00
 94.37     848.00
 94.47     888.00
 94.57     926.00
 94.67     908.00
 94.77     915.00
 94.87     883.94
 94.97     947.00
 95.07     913.00
 95.17     847.00
 95.27     855.33
 95.37     870.00
 95.47     771.35
 95.57     772.25
 95.67     729.00
 95.77     710.00
 95.87     633.00
 95.97     693.00
 96.07     659.00
 96.17     715.00
 96.27     740.00
 96.37     687.14
 96.47     790.00
 96.57     849.00
 96.67     911.55
 96.77     987.35
 96.87     995.00
 96.97    1113.00
 97.07    1232.28
 97.17    1222.41
 97.27    1358.00
 97.37    1414.00
 97.47    1381.75
 97.57    1423.00
 97.67    1485.00
 97.77    1385.00
 97.87    1303.00
 97.97    1287.00
 98.07    1261.00
 98.17    1193.00
 98.27    1100.00
 98.37    1028.63
 98.47     990.00
 98.57     890.13
 98.67     866.00
 98.77     816.00
 98.87     750.87
 98.97     800.00
 99.07     794.00
 99.17     822.00
 99.27     835.00
 99.37     878.00
 99.47     991.00
 99.57    1065.00
 99.67    1172.00
 99.77    1301.00
 99.87    1358.43
 99.97    1486.82
100.07    1575.00
100.17    1654.00
100.27    1859.00
100.37    1908.00
100.47    2065.30
100.57    2111.05
100.67    2080.00
100.77    2107.35
100.87    2198.00
100.97    2126.85
101.07    2066.46
101.17    2011.00
101.27    1842.44
101.37    1835.98
101.47    1622.20
101.57    1592.00
101.67    1448.00
101.77    1406.00
101.87    1325.01
101.97    1268.00
102.07    1226.00
102.17    1090.00
102.27    1086.00
102.37    1097.00
102.47    1131.00
102.57    1029.00
102.67    1014.20
102.77    1080.94
102.87    1009.40
102.97     995.04
103.07     975.68
103.17     882.00
103.27     850.66
103.37     858.95
103.47     811.00
103.57     708.67
103.67     739.00
103.77     661.00
103.87     616.37
103.97     654.00
104.07     594.00
104.17     565.00
104.27     540.00
104.37     538.00
104.47     534.00
104.57     560.00
104.67     578.74
104.77     496.47
104.87     579.00
104.97     535.00
105.07     510.00
105.17     516.41
105.27     564.29
105.37     596.00
105.47     566.03
105.57     587.00
105.67     589.00
105.77     552.00
105.87     553.00
105.97     578.00
106.07     585.00
106.17     651.00
106.27     584.00
106.37     584.00
106.47     587.00
106.57     653.00
106.67     613.00
106.77     674.55
106.87     649.00
106.97     650.00
107.07     645.00
107.17     669.11
107.27     686.62
107.37     668.00
107.47     715.00
107.57     648.00
107.67     668.00
107.77     663.00
107.87     704.00
107.97     622.00
108.07     648.00
108.17     723.24
108.27     676.35
108.37     692.00
108.47     643.00
108.57     663.00
108.67     696.00
108.77     675.00
108.87     684.00
108.97     672.00
109.07     724.84
109.17     665.00
109.27     658.00
109.37     639.74
109.47     636.00
109.57     654.00
109.67     628.33
109.77     655.00
109.87     604.00
109.97     574.00
110.07     649.00
110.17     555.00
110.27     582.30
110.37     597.00
110.47     545.00
110.57     549.97
110.67     529.27
110.77     506.00
110.87     577.00
110.97     608.00
111.07     543.00
111.17     521.24
111.27     582.00
111.37     527.00
111.47     535.23
111.57     540.00
111.67     528.81
111.77     576.91
111.87     590.50
111.97     544.96
112.07     539.04
112.17     596.20
112.27     593.00
112.37     579.00
112.47     599.84
112.57     604.83
112.67     603.00
112.77     597.00
112.87     576.00
112.97     651.00
113.07     727.91
113.17     693.30
113.27     675.00
113.37     763.32
113.47     799.00
113.57     772.12
113.67     852.00
113.77     921.00
113.87     992.00
113.97    1084.00
114.07    1045.00
114.17    1070.00
114.27    1123.00
114.37    1214.22
114.47    1294.00
114.57    1459.00
114.67    1556.91
114.77    1678.00
114.87    1873.04
114.97    2059.48
115.07    2319.00
115.17    2521.00
115.27    2780.00
115.37    3137.00
115.47    3305.00
115.57    3687.00
115.67    3851.00
115.77    4308.00
115.87    4677.07
115.97    5150.14
116.07    5502.00
116.17    5737.00
116.27    6282.00
116.37    6607.00
116.47    6680.21
116.57    6925.00
116.67    7014.00
116.77    7102.00
116.87    6917.00
116.97    6886.00
117.07    6551.42
117.17    6202.00
117.27    5834.00
117.37    5559.39
117.47    5110.00
117.57    4649.00
117.67    4471.00
117.77    4130.00
117.87    3690.45
117.97    3501.00
118.07    2869.46
118.17    2576.20
118.27    2377.00
118.37    2115.00
118.47    1872.84
118.57    1673.04
118.67    1463.00
118.77    1279.00
118.87    1201.05
118.97    1071.00
119.07     943.00
119.17     936.00
119.27     898.40
119.37     763.00
119.47     761.00
119.57     681.00
119.67     693.88
119.77     635.00
119.87     665.62
119.97     593.39
120.07     569.00
120.17     572.00
120.27     626.00
120.37     594.00
120.47     592.00
120.57     589.00
120.67     557.46
120.77     582.00
120.87     531.00
120.97     532.00
121.07     556.00
121.17     589.00
121.27     614.59
121.37     595.00
121.47     548.00
121.57     559.00
121.67     612.00
121.77     587.00
121.87     602.99
121.97     579.77
122.07     597.02
122.17     613.70
122.27     604.19
122.37     642.11
122.47     625.00
122.57     639.00
122.67     618.00
122.77     677.00
122.87     637.00
122.97     716.00
123.07     697.00
123.17     650.59
123.27     693.00
123.37     626.20
123.47     699.00
123.57     673.25
123.67     632.29
123.77     617.70
123.87     593.00
123.97     651.00
124.07     595.26
124.17     605.00
124.27     632.00
124.37     605.00
124.47     624.58
124.57     601.00
124.67     593.00
124.77     631.25
124.87     578.00
124.97     571.00
