  9.97     682.87
 10.07     674.00
 10.17     700.00
 10.27     703.00
 10.37     622.00
 10.47     652.00
 10.57     630.00
 10.67     696.73
 10.77     664.00
 10.87     642.00
 10.97     681.00
 11.07     641.55
 11.17     678.00
 11.27     633.92
 11.37     693.88
 11.47     641.26
 11.57     678.00
 11.67     689.00
 11.77     657.31
 11.87     659.18
 11.97     788.00
 12.07     753.82
 12.17     749.44
 12.27     798.00
 12.37     788.00
 12.47     695.31
 12.57     741.00
 12.67     667.00
 12.77     683.00
 12.87     598.00
 12.97     623.00
 13.07     668.00
 13.17     706.00
 13.27     634.00
 13.37     634.00
 13.47     583.62
 13.57     618.00
 13.67     675.20
 13.77     577.00
 13.87     637.00
 13.97     585.24
 14.07     586.00
 14.17     621.00
 14.27     647.00
 14.37     605.00
 14.47     618.17
 14.57     604.00
 14.67     587.00
 14.77     582.00
 14.87     608.00
 14.97     669.56
 15.07     643.58
 15.17     566.00
 15.27     661.00
 15.37     644.26
 15.47     651.00
 15.57     586.00
 15.67     613.00
 15.77     615.00
 15.87     598.00
 15.97     620.00
 16.07     666.00
 16.17     647.00
 16.27     647.00
 16.37     573.32
 16.47     670.56
 16.57     627.00
 16.67     624.00
 16.77     593.00
 16.87     644.35
 16.97     619.00
 17.07     633.00
 17.17     579.86
 17.27     581.58
 17.37     603.75
 17.47     607.00
 17.57     676.22
 17.67     641.00
 17.77     636.00
 17.87     663.66
 17.97     632.00
 18.07     600.15
 18.17     601.00
 18.27     631.00
 18.37     590.40
 18.47     587.10
 18.57     636.95
 18.67     601.00
 18.77     581.00
 18.87     657.40
 18.97     657.86
 19.07     595.00
 19.17     605.00
 19.27     600.00
 19.37     600.00
 19.47     606.00
 19.57     610.00
 19.67     565.00
 19.77     576.00
 19.87     565.00
 19.97     620.62
 20.07     674.33
 20.17     626.00
 20.27     575.92
 20.37     565.96
 20.47     590.00
 20.57     561.00
 20.67     653.05
 20.77     627.00
 20.87     565.00
 20.97     579.00
 21.07     582.00
 21.17     613.00
 21.27     575.10
 21.37     612.00
 21.47     602.00
 21.57     612.00
 21.67     565.00
 21.77     592.00
 21.87     608.11
 21.97     589.60
 22.07     629.00
 22.17     584.00
 22.27     597.20
 22.37     638.00
 22.47     612.00
 22.57     627.00
 22.67     593.00
 22.77     585.00
 22.87     592.00
 22.97     589.00
 23.07     645.48
 23.17     647.80
 23.27     612.00
 23.37     623.00
 23.47     572.00
 23.57     606.43
 23.67     634.00
 23.77     643.00
 23.87     619.00
 23.97     554.57
 24.07     586.81
 24.17     603.80
 24.27     632.00
 24.37     578.25
 24.47     651.92
 24.57     667.91
 24.67     641.00
 24.77     707.00
 24.87     652.16
 24.97     689.00
 25.07     686.00
 25.17     654.00
 25.27     705.00
 25.37     687.00
 25.47     651.00
 25.57     649.00
 25.67     644.00
 25.77     562.68
 25.87     639.00
 25.97     642.00
 26.07     587.92
 26.17     651.14
 26.27     641.00
 26.37     600.00
 26.47     609.00
 26.57     574.78
 26.67     645.00
 26.77     645.00
 26.87     588.75
 26.97     629.00
 27.07     659.00
 27.17     673.00
 27.27     709.00
 27.37     687.00
 27.47     728.00
 27.57     703.00
 27.67     764.00
 27.77     784.00
 27.87     828.00
 27.97    1061.99
 28.07    1297.00
 28.17    1841.32
 28.27    2505.28
 28.37    2801.00
 28.47    2725.00
 28.57    2130.00
 28.67    1771.00
 28.77    1569.00
 28.87    1493.00
 28.97    1685.00
 29.07    1792.07
 29.17    1726.00
 29.27    1574.00
 29.37    1244.00
 29.47    1033.00
 29.57     880.00
 29.67     814.00
 29.77     772.00
 29.87     783.00
 29.97     715.00
 30.07     585.95
 30.17     730.00
 30.27     657.52
 30.37     721.00
 30.47     619.66
 30.57     707.00
 30.67     700.00
 30.77     665.00
 30.87     697.00
 30.97     637.25
 31.07     675.00
 31.17     648.96
 31.27     706.00
 31.37     694.08
 31.47     639.00
 31.57     640.00
 31.67     570.65
 31.77     663.00
 31.87     648.00
 31.97     553.03
 32.07     558.60
 32.17     574.12
 32.27     608.00
 32.37     590.00
 32.47     527.57
 32.57     634.00
 32.67     595.00
 32.77     613.00
 32.87     617.95
 32.97     559.25
 33.07     579.00
 33.17     660.00
 33.27     587.00
 33.37     576.00
 33.47     617.88
 33.57     645.00
 33.67     651.15
 33.77     736.00
 33.87     772.00
 33.97     935.00
 34.07     947.00
 34.17    1106.93
 34.27    1108.71
 34.37    1052.79
 34.47     867.37
 34.57     811.00
 34.67     699.00
 34.77     639.00
 34.87     669.88
 34.97     623.00
 35.07     615.56
 35.17     609.00
 35.27     591.00
 35.37     575.00
 35.47     629.59
 35.57     558.00
 35.67     580.63
 35.77     543.00
 35.87     615.73
 35.97     505.00
 36.07     546.15
 36.17     557.00
 36.27     568.13
 36.37     576.00
 36.47     556.00
 36.57     539.00
 36.67     524.00
 36.77     567.00
 36.87     596.29
 36.97     556.00
 37.07     550.00
 37.17     575.67
 37.27     502.00
 37.37     563.00
 37.47     529.00
 37.57     566.81
 37.67     590.38
 37.77     570.00
 37.87     541.80
 37.97     614.70
 38.07     590.36
 38.17     671.00
 38.27     673.14
 38.37     625.00
 38.47     599.32
 38.57     557.00
 38.67     516.00
 38.77     623.00
 38.87     585.88
 38.97     516.00
 39.07     551.00
 39.17     547.70
 39.27     536.95
 39.37     545.38
 39.47     505.00
 39.57     546.00
 39.67     561.03
 39.77     542.00
 39.87     568.48
 39.97     563.00
 40.07     532.00
 40.17     546.00
 40.27     562.00
 40.37     556.78
 40.47     549.97
 40.57     563.88
 40.67     519.50
 40.77     600.60
 40.87     547.00
 40.97     524.00
 41.07     599.89
 41.17     512.00
 41.27     514.66
 41.37     527.00
 41.47     547.00
 41.57     564.00
 41.67     597.65
 41.77     535.30
 41.87     519.00
 41.97     539.77
 42.07     572.00
 42.17     540.00
 42.27     553.00
 42.37     594.00
 42.47     547.00
 42.57     591.00
 42.67     597.00
 42.77     604.02
 42.87     636.51
 42.97     621.00
 43.07     634.00
 43.17     674.98
 43.27     563.00
 43.37     556.00
 43.47     503.00
 43.57     608.45
 43.67     576.57
 43.77     566.00
 43.87     529.00
 43.97     526.28
 44.07     537.00
 44.17     550.00
 44.27     567.00
 44.37     541.00
 44.47     521.00
 44.57     551.74
 44.67     549.62
 44.77     513.00
 44.87     561.00
 44.97     527.00
 45.07     520.76
 45.17     532.00
 45.27     532.00
 45.37     530.02
 45.47     507.80
 45.57     533.00
 45.67     533.00
 45.77     505.52
 45.87     574.74
 45.97     586.00
 46.07     556.00
 46.17     541.00
 46.27     534.00
 46.37     563.00
 46.47     505.00
 46.57     518.00
 46.67     523.00
 46.77     493.00
 46.87     528.66
 46.97     564.00
 47.07     533.00
 47.17     539.00
 47.27     569.00
 47.37     571.00
 47.47     538.00
 47.57     605.01
 47.67     579.00
 47.77     595.00
 47.87     598.34
 47.97     636.00
 48.07     626.00
 48.17     630.50
 48.27     672.33
 48.37     635.00
 48.47     655.25
 48.57     663.00
 48.67     621.00
 48.77     571.00
 48.87     590.81
 48.97     553.87
 49.07     612.00
 49.17     626.00
 49.27     600.00
 49.37     661.39
 49.47     650.12
 49.57     652.00
 49.67     771.50
 49.77     761.93
 49.87     932.39
 49.97    1099.00
 50.07    1441.00
 50.17    1801.00
 50.27    2259.50
 50.37    2390.75
 50.47    2595.39
 50.57    2413.00
 50.67    2036.00
 50.77    1667.00
 50.87    1296.63
 50.97    1111.00
 51.07     920.16
 51.17     774.00
 51.27     709.96
 51.37     700.00
 51.47     673.00
 51.57     641.00
 51.67     665.35
 51.77     630.00
 51.87     602.32
 51.97     664.00
 52.07     637.00
 52.17     625.00
 52.27     583.00
 52.37     605.00
 52.47     625.00
 52.57     627.00
 52.67     605.00
 52.77     632.00
 52.87     620.00
 52.97     637.00
 53.07     729.00
 53.17     704.00
 53.27     724.10
 53.37     815.00
 53.47     972.00
 53.57    1072.00
 53.67    1176.00
 53.77    1235.00
 53.87    1232.00
 53.97    1253.55
 54.07    1084.00
 54.17    1010.00
 54.27     889.00
 54.37     802.00
 54.47     785.32
 54.57     671.11
 54.67     679.00
 54.77     652.00
 54.87     611.00
 54.97     603.00
 55.07     630.00
 55.17     581.55
 55.27     681.00
 55.37     616.00
 55.47     614.00
 55.57     617.00
 55.67     628.73
 55.77     603.00
 55.87     656.00
 55.97     643.00
 56.07     624.70
 56.17     720.00
 56.27     781.96
 56.37     822.00
 56.47    1000.46
 56.57    1166.09
 56.67    1312.00
 56.77    1596.00
 56.87    1952.00
 56.97    2173.38
 57.07    2512.00
 57.17    2535.00
 57.27    2582.48
 57.37    2288.21
 57.47    2072.09
 57.57    1691.00
 57.67    1326.00
 57.77    1114.00
 57.87     911.00
 57.97     895.00
 58.07     821.06
 58.17     711.00
 58.27     810.00
 58.37     744.00
 58.47     734.00
 58.57     837.00
 58.67     881.00
 58.77     876.00
 58.87    1031.00
 58.97    1133.00
 59.07    1157.00
 59.17    1201.00
 59.27    1285.00
 59.37    1303.00
 59.47    1266.00
 59.57    1218.00
 59.67    1206.00
 59.77    1190.31
 59.87    1166.00
 59.97    1192.00
 60.07    1126.00
 60.17    1282.65
 60.27    1408.08
 60.37    1384.00
 60.47    1620.00
 60.57    1580.00
 60.67    1560.00
 60.77    1432.00
 60.87    1302.39
 60.97    1138.00
 61.07    1033.00
 61.17     890.00
 61.27     853.00
 61.37     739.19
 61.47     795.00
 61.57     765.86
 61.67     789.00
 61.77     758.17
 61.87     811.20
 61.97     988.80
 62.07    1073.00
 62.17    1199.00
 62.27    1277.00
 62.37    1449.00
 62.47    1397.00
 62.57    1394.45
 62.67    1351.00
 62.77    1299.02
 62.87    1063.00
 62.97     976.00
 63.07     858.98
 63.17     785.00
 63.27     681.00
 63.37     651.62
 63.47     621.54
 63.57     640.27
 63.67     620.00
 63.77     627.62
 63.87     646.00
 63.97     647.84
 64.07     659.00
 64.17     697.00
 64.27     735.00
 64.37     757.60
 64.47     870.68
 64.57     842.00
 64.67     988.67
 64.77    1065.87
 64.87    1183.00
 64.97    1140.96
 65.07    1213.00
 65.17    1122.00
 65.27    1084.61
 65.37    1052.00
 65.47     979.56
 65.57     953.98
 65.67     811.00
 65.77     764.74
 65.87     686.00
 65.97     697.00
 66.07     688.00
 66.17     667.00
 66.27     699.26
 66.37     657.08
 66.47     588.74
 66.57     602.00
 66.67     633.00
 66.77     636.00
 66.87     584.00
 66.97     617.00
 67.07     621.46
 67.17     686.00
 67.27     718.00
 67.37     785.63
 67.47     732.81
 67.57     919.03
 67.67    1009.00
 67.77    1136.31
 67.87    1382.09
 67.97    1495.00
 68.07    1848.67
 68.17    1919.00
 68.27    2218.00
 68.37    2347.62
 68.47    2493.00
 68.57    2403.00
 68.67    2191.00
 68.77    2074.52
 68.87    1782.00
 68.97    1560.00
 69.07    1280.00
 69.17    1154.00
 69.27     951.00
 69.37     923.95
 69.47     858.40
 69.57     736.00
 69.67     756.20
 69.77     684.29
 69.87     634.00
 69.97     659.90
 70.07     606.00
 70.17     611.29
 70.27     611.00
 70.37     619.00
 70.47     667.09
 70.57     672.00
 70.67     596.10
 70.77     651.01
 70.87     657.00
 70.97     615.00
 71.07     627.00
 71.17     720.07
 71.27     697.00
 71.37     706.00
 71.47     798.00
 71.57     929.98
 71.67     943.00
 71.77    1076.00
 71.87    1283.15
 71.97    1378.92
 72.07    1461.00
 72.17    1645.20
 72.27    1875.46
 72.37    1855.29
 72.47    1915.21
 72.57    1920.77
 72.67    1821.00
 72.77    1604.00
 72.87    1407.00
 72.97    1274.00
 73.07    1060.03
 73.17    1018.57
 73.27     913.40
 73.37     839.02
 73.47     707.95
 73.57     751.00
 73.67     690.00
 73.77     668.00
 73.87     612.00
 73.97     629.00
 74.07     661.00
 74.17     653.00
 74.27     628.00
 74.37     626.00
 74.47     569.79
 74.57     612.00
 74.67     627.56
 74.77     692.00
 74.87     690.00
 74.97     572.21
 75.07     679.00
 75.17     678.00
 75.27     647.00
 75.37     678.00
 75.47     698.00
 75.57     646.00
 75.67     621.00
 75.77     559.00
 75.87     618.00
 75.97     622.57
 76.07     659.00
 76.17     686.00
 76.27     604.30
 76.37     668.00
 76.47     725.00
 76.57     752.49
 76.67     683.44
 76.77     757.86
 76.87     821.00
 76.97     742.00
 77.07     774.24
 77.17     776.62
 77.27     705.14
 77.37     730.00
 77.47     738.50
 77.57     697.25
 77.67     646.51
 77.77     614.00
 77.87     610.26
 77.97     630.39
 78.07     590.00
 78.17     559.00
 78.27     550.00
 78.37     527.00
 78.47     581.00
 78.57     596.66
 78.67     555.00
 78.77     583.34
 78.87     537.82
 78.97     535.00
 79.07     540.62
 79.17     587.14
 79.27     597.25
 79.37     569.00
 79.47     609.00
 79.57     566.00
 79.67     569.00
 79.77     544.00
 79.87     550.15
 79.97     554.00
 80.07     578.00
 80.17     550.00
 80.27     596.00
 80.37     583.00
 80.47     601.00
 80.57     665.85
 80.67     692.00
 80.77     684.00
 80.87     723.37
 80.97     752.00
 81.07     777.00
 81.17     803.00
 81.27     873.70
 81.37     829.00
 81.47     943.07
 81.57     869.64
 81.67     934.00
 81.77     851.15
 81.87     926.00
 81.97     907.00
 82.07     896.00
 82.17     900.00
 82.27     817.65
 82.37     765.00
 82.47     726.05
 82.57     724.00
 82.67     672.00
 82.77     654.25
 82.87     663.00
 82.97     645.95
 83.07     554.00
 83.17     630.00
 83.27     581.00
 83.37     559.90
 83.47     599.00
 83.57     554.14
 83.67     585.00
 83.77     525.00
 83.87     599.00
 83.97     550.00
 84.07     580.00
 84.17     609.46
 84.27     567.00
 84.37     635.00
 84.47     560.00
 84.57     634.78
 84.67     596.19
 84.77     600.00
 84.87     578.57
 84.97     585.00
 85.07     572.00
 85.17     556.00
 85.27     543.00
 85.37     578.00
 85.47     543.86
 85.57     548.32
 85.67     535.00
 85.77     531.19
 85.87     537.00
 85.97     536.88
 86.07     580.30
 86.17     535.00
 86.27     536.00
 86.37     575.00
 86.47     587.39
 86.57     579.00
 86.67     592.36
 86.77     551.02
 86.87     612.00
 86.97     597.00
 87.07     611.00
 87.17     589.00
 87.27     638.82
 87.37     652.00
 87.47     654.00
 87.57     592.67
 87.67     692.00
 87.77     630.00
 87.87     683.00
 87.97     650.00
 88.07     763.00
 88.17     672.00
 88.27     671.00
 88.37     717.00
 88.47     682.57
 88.57     628.00
 88.67     638.00
 88.77     649.00
 88.87     607.00
 88.97     602.00
 89.07     565.51
 89.17     581.00
 89.27     619.98
 89.37     612.00
 89.47     583.00
 89.57     589.00
 89.67     594.00
 89.77     626.81
 89.87     675.57
 89.97     606.14
 90.07     588.90
 90.17     584.58
 90.27     656.00
 90.37     598.00
 90.47     579.00
 90.57     599.00
 90.67     611.24
 90.77     577.10
 90.87     545.59
 90.97     587.97
 91.07     547.00
 91.17     510.99
 91.27     566.00
 91.37     541.37
 91.47     604.11
 91.57     576.00
 91.67     502.72
 91.77     567.97
 91.87     554.09
 91.97     581.48
 92.07     504.89
 92.17     534.22
 92.27     565.00
 92.37     567.00
 92.47     542.00
 92.57     562.00
 92.67     630.34
 92.77     570.00
 92.87     644.00
 92.97     635.00
 93.07     593.33
 93.17     652.00
 93.27     665.00
 93.37     712.00
 93.47     730.00
 93.57     715.00
 93.67     811.96
 93.77     759.00
 93.87     812.92
 93.97     780.00
 94.07     771.44
 94.17     844.96
 94.27     860.00
 94.37     864.00
 94.47     955.00
 94.57     836.76
 94.67     864.00
 94.77     910.00
 94.87     892.48
 94.97     961.69
 95.07     974.50
 95.17    1000.00
 95.27     906.02
 95.37     912.14
 95.47     995.00
 95.57     932.00
 95.67     945.68
 95.77     898.00
 95.87     830.09
 95.97     803.00
 96.07     859.00
 96.17     738.40
 96.27     813.00
 96.37     748.00
 96.47     765.28
 96.57     732.00
 96.67     826.00
 96.77     781.00
 96.87     785.00
 96.97     895.00
 97.07     943.00
 97.17     940.00
 97.27    1039.00
 97.37    1073.00
 97.47    1226.34
 97.57    1187.33
 97.67    1315.00
 97.77    1322.32
 97.87    1463.32
 97.97    1434.97
 98.07    1509.77
 98.17    1516.00
 98.27    1575.00
 98.37    1420.32
 98.47    1487.39
 98.57    1388.22
 98.67    1401.17
 98.77    1251.74
 98.87    1198.00
 98.97    1127.00
 99.07    1043.30
 99.17    1026.00
 99.27    1029.00
 99.37     954.00
 99.47     955.00
 99.57     948.00
 99.67     882.72
 99.77     973.00
 99.87    1064.34
 99.97    1045.00
100.07    1078.59
100.17    1164.00
100.27    1305.00
100.37    1309.00
100.47    1483.00
100.57    1494.00
100.67    1520.96
100.77    1743.00
100.87    1803.00
100.97    1798.00
101.07    1963.00
101.17    2058.15
101.27    2046.00
101.37    2025.13
101.47    2112.00
101.57    1938.22
101.67    1906.92
101.77    1904.00
101.87    1869.00
101.97    1840.00
102.07    1816.74
102.17    1604.00
102.27    1554.00
102.37    1490.24
102.47    1415.21
102.57    1366.00
102.67    1329.00
102.77    1289.00
102.87    1244.36
102.97    1215.62
103.07    1154.00
103.17    1095.00
103.27    1079.00
103.37    1157.00
103.47    1066.00
103.57    1004.00
103.67    1094.43
103.77     960.00
103.87     946.87
103.97     856.78
104.07     810.43
104.17     838.00
104.27     822.00
104.37     765.00
104.47     778.07
104.57     715.00
104.67     677.30
104.77     683.00
104.87     663.00
104.97     673.00
105.07     636.00
105.17     652.00
105.27     630.00
105.37     687.00
105.47     609.00
105.57     577.00
105.67     574.00
105.77     597.00
105.87     539.88
105.97     593.00
106.07     579.00
106.17     574.00
106.27     586.00
106.37     629.85
106.47     564.00
106.57     611.00
106.67     588.00
106.77     598.00
106.87     648.00
106.97     632.00
107.07     681.56
107.17     642.00
107.27     640.00
107.37     725.07
107.47     686.00
107.57     693.93
107.67     674.00
107.77     691.00
107.87     708.73
107.97     769.94
108.07     720.00
108.17     732.74
108.27     714.00
108.37     750.00
108.47     711.00
108.57     712.00
108.67     737.00
108.77     736.84
108.87     695.11
108.97     747.79
109.07     739.83
109.17     751.00
109.27     686.00
109.37     706.00
109.47     768.73
109.57     679.51
109.67     783.00
109.77     737.00
109.87     753.00
109.97     704.00
110.07     771.61
110.17     657.07
110.27     734.16
110.37     633.00
110.47     680.00
110.57     693.00
110.67     668.00
110.77     595.12
110.87     654.16
110.97     663.93
111.07     611.00
111.17     645.61
111.27     573.48
111.37     598.00
111.47     630.00
111.57     579.67
111.67     610.00
111.77     533.04
111.87     593.00
111.97     611.88
112.07     519.33
112.17     604.05
112.27     591.00
112.37     605.08
112.47     595.00
112.57     531.00
112.67     564.00
112.77     616.00
112.87     639.19
112.97     590.00
113.07     579.11
113.17     596.91
113.27     587.00
113.37     566.59
113.47     651.96
113.57     569.00
113.67     614.00
113.77     618.00
113.87     660.08
113.97     645.00
114.07     627.40
114.17     691.72
114.27     640.68
114.37     691.00
114.47     686.00
114.57     757.00
114.67     825.32
114.77     820.02
114.87     940.19
114.97     970.00
115.07    1070.40
115.17    1126.00
115.27    1334.00
115.37    1461.00
115.47    1624.00
115.57    1842.62
115.67    1934.11
115.77    2247.61
115.87    2369.65
115.97    2997.00
116.07    3236.00
116.17    3508.23
116.27    3838.00
116.37    4262.03
116.47    4532.00
116.57    4994.00
116.67    5276.00
116.77    5712.64
116.87    5949.00
116.97    6519.57
117.07    6789.00
117.17    6980.76
117.27    7111.00
117.37    7152.65
117.47    7206.00
117.57    7193.63
117.67    7178.00
117.77    6900.00
117.87    6563.00
117.97    6169.00
118.07    6168.98
118.17    5804.72
118.27    5324.00
118.37    4910.00
118.47    4713.00
118.57    4394.00
118.67    3905.18
118.77    3505.00
118.87    3204.00
118.97    2995.00
119.07    2748.99
119.17    2381.00
119.27    2087.93
119.37    1978.44
119.47    1756.35
119.57    1532.00
119.67    1447.25
119.77    1357.98
119.87    1299.08
119.97    1171.04
120.07     994.42
120.17     930.93
120.27     953.05
120.37     910.72
120.47     858.00
120.57     803.00
120.67     812.00
120.77     746.00
120.87     693.00
120.97     688.00
121.07     694.00
121.17     672.00
121.27     715.21
121.37     662.05
121.47     656.20
121.57     626.00
121.67     667.76
121.77     659.89
121.87     627.00
121.97     606.58
122.07     613.00
122.17     649.28
122.27     661.00
122.37     615.90
122.47     671.37
122.57     679.63
122.67     602.78
122.77     630.31
122.87     704.19
122.97     659.00
123.07     686.00
123.17     650.00
123.27     652.40
123.37     698.36
123.47     651.00
123.57     670.00
123.67     740.00
123.77     686.00
123.87     688.00
123.97     736.55
124.07     717.05
124.17     687.00
124.27     698.00
124.37     667.00
124.47     683.20
124.57     686.00
124.67     628.00
124.77     704.00
124.87     682.76
124.97     683.00
