  9.97     530.39
 10.07     581.93
 10.17     607.00
 10.27     599.00
 10.37     635.00
 10.47     622.00
 10.57     577.00
 10.67     572.00
 10.77     549.89
 10.87     598.38
 10.97     595.00
 11.07     600.00
 11.17     569.00
 11.27     587.31
 11.37     586.05
 11.47     581.46
 11.57     601.00
 11.67     588.00
 11.77     573.04
 11.87     605.00
 11.97     623.47
 12.07     687.00
 12.17     716.00
 12.27     652.00
 12.37     693.66
 12.47     607.00
 12.57     606.04
 12.67     592.61
 12.77     537.54
 12.87     568.00
 12.97     562.00
 13.07     572.00
 13.17     533.00
 13.27     579.12
 13.37     556.00
 13.47     544.00
 13.57     601.82
 13.67     543.00
 13.77     537.07
 13.87     584.00
 13.97     608.42
 14.07     566.00
 14.17     542.00
 14.27     540.00
 14.37     564.83
 14.47     529.00
 14.57     587.00
 14.67     598.60
 14.77     573.14
 14.87     567.56
 14.97     534.00
 15.07     564.00
 15.17     601.22
 15.27     580.00
 15.37     548.00
 15.47     558.31
 15.57     502.00
 15.67     544.00
 15.77     603.19
 15.87     572.00
 15.97     562.00
 16.07     578.00
 16.17     564.85
 16.27     533.00
 16.37     574.00
 16.47     560.33
 16.57     540.00
 16.67     599.41
 16.77     532.59
 16.87     571.00
 16.97     544.74
 17.07     541.00
 17.17     589.00
 17.27     539.57
 17.37     535.00
 17.47     573.44
 17.57     595.67
 17.67     499.00
 17.77     580.00
 17.87     556.05
 17.97     559.00
 18.07     573.69
 18.17     543.00
 18.27     562.15
 18.37     585.00
 18.47     521.99
 18.57     559.00
 18.67     549.77
 18.77     537.00
 18.87     515.00
 18.97     591.00
 19.07     528.00
 19.17     528.04
 19.27     529.82
 19.37     538.29
 19.47     549.00
 19.57     586.00
 19.67     556.00
 19.77     570.00
 19.87     575.00
 19.97     594.79
 20.07     532.00
 20.17     555.00
 20.27     513.41
 20.37     537.63
 20.47     575.00
 20.57     598.77
 20.67     585.00
 20.77     578.00
 20.87     539.00
 20.97     552.00
 21.07     532.30
 21.17     526.00
 21.27     552.00
 21.37     559.00
 21.47     586.33
 21.57     560.00
 21.67     579.00
 21.77     512.22
 21.87     562.00
 21.97     528.20
 22.07     522.00
 22.17     575.00
 22.27     505.94
 22.37     528.56
 22.47     562.38
 22.57     585.48
 22.67     562.00
 22.77     615.00
 22.87     591.35
 22.97     539.00
 23.07     519.00
 23.17     520.78
 23.27     526.00
 23.37     556.63
 23.47     592.21
 23.57     559.54
 23.67     568.00
 23.77     511.00
 23.87     547.51
 23.97     574.63
 24.07     548.18
 24.17     568.00
 24.27     594.00
 24.37     595.00
 24.47     627.00
 24.57     649.00
 24.67     646.00
 24.77     612.00
 24.87     596.00
 24.97     630.00
 25.07     540.00
 25.17     585.58
 25.27     594.11
 25.37     578.28
 25.47     592.00
 25.57     570.85
 25.67     529.00
 25.77     563.00
 25.87     532.00
 25.97     574.39
 26.07     558.00
 26.17     571.83
 26.27     572.15
 26.37     556.00
 26.47     526.22
 26.57     549.00
 26.67     551.57
 26.77     602.00
 26.87     523.90
 26.97     573.49
 27.07     548.92
 27.17     530.00
 27.27     551.00
 27.37     562.00
 27.47     539.00
 27.57     549.44
 27.67     585.00
 27.77     544.00
 27.87     581.00
 27.97     648.00
 28.07     763.64
 28.17     969.00
 28.27     968.00
 28.37     890.00
 28.47     811.94
 28.57     686.00
 28.67     752.00
 28.77     701.86
 28.87     767.00
 28.97     864.58
 29.07     749.00
 29.17     728.21
 29.27     601.00
 29.37     573.55
 29.47     568.00
 29.57     524.48
 29.67     575.00
 29.77     577.00
 29.87     592.00
 29.97     599.00
 30.07     563.00
 30.17     543.00
 30.27     593.00
 30.37     590.00
 30.47     608.00
 30.57     552.00
 30.67     565.00
 30.77     619.00
 30.87     665.00
 30.97     623.00
 31.07     619.00
 31.17     589.00
 31.27     572.06
 31.37     547.00
 31.47     537.47
 31.57     522.72
 31.67     552.00
 31.77     513.00
 31.87     534.00
 31.97     564.92
 32.07     532.00
 32.17     525.00
 32.27     561.00
 32.37     530.00
 32.47     536.00
 32.57     529.00
 32.67     548.00
 32.77     523.99
 32.87     584.00
 32.97     518.00
 33.07     524.90
 33.17     522.83
 33.27     496.12
 33.37     503.57
 33.47     573.00
 33.57     640.00
 33.67     599.48
 33.77     760.00
 33.87     905.96
 33.97    1040.42
 34.07    1089.00
 34.17    1055.16
 34.27     908.00
 34.37     722.00
 34.47     689.13
 34.57     609.00
 34.67     562.00
 34.77     553.00
 34.87     531.00
 34.97     570.48
 35.07     553.00
 35.17     551.60
 35.27     510.00
 35.37     498.00
 35.47     517.00
 35.57     543.64
 35.67     521.00
 35.77     533.00
 35.87     542.00
 35.97     464.00
 36.07     537.35
 36.17     516.69
 36.27     528.46
 36.37     504.63
 36.47     510.99
 36.57     507.00
 36.67     487.00
 36.77     523.48
 36.87     518.00
 36.97     504.00
 37.07     469.00
 37.17     524.00
 37.27     522.00
 37.37     501.00
 37.47     544.00
 37.57     482.91
 37.67     545.29
 37.77     489.50
 37.87     513.32
 37.97     533.00
 38.07     542.80
 38.17     485.00
 38.27     520.17
 38.37     468.83
 38.47     520.00
 38.57     493.00
 38.67     504.00
 38.77     503.17
 38.87     499.00
 38.97     495.00
 39.07     548.75
 39.17     494.00
 39.27     512.99
 39.37     495.00
 39.47     552.00
 39.57     465.03
 39.67     492.00
 39.77     508.86
 39.87     494.00
 39.97     547.53
 40.07     516.25
 40.17     504.09
 40.27     485.00
 40.37     508.00
 40.47     491.00
 40.57     466.00
 40.67     525.00
 40.77     514.00
 40.87     499.00
 40.97     511.00
 41.07     519.00
 41.17     516.53
 41.27     490.00
 41.37     478.00
 41.47     500.00
 41.57     523.00
 41.67     481.00
 41.77     520.00
 41.87     522.00
 41.97     536.94
 42.07     511.00
 42.17     551.50
 42.27     568.00
 42.37     567.09
 42.47     580.00
 42.57     585.00
 42.67     590.00
 42.77     574.00
 42.87     616.00
 42.97     578.00
 43.07     567.00
 43.17     521.00
 43.27     508.00
 43.37     503.54
 43.47     518.00
 43.57     512.00
 43.67     485.79
 43.77     476.51
 43.87     527.00
 43.97     541.00
 44.07     501.00
 44.17     505.00
 44.27     520.02
 44.37     469.00
 44.47     504.00
 44.57     506.00
 44.67     547.29
 44.77     479.50
 44.87     500.00
 44.97     443.00
 45.07     506.00
 45.17     481.36
 45.27     548.00
 45.37     476.86
 45.47     461.53
 45.57     511.00
 45.67     529.00
 45.77     473.00
 45.87     511.77
 45.97     527.00
 46.07     517.00
 46.17     500.00
 46.27     488.00
 46.37     507.00
 46.47     513.00
 46.57     547.24
 46.67     482.36
 46.77     473.70
 46.87     494.00
 46.97     543.30
 47.07     446.00
 47.17     493.61
 47.27     545.00
 47.37     529.00
 47.47     519.00
 47.57     606.00
 47.67     652.00
 47.77     582.00
 47.87     601.00
 47.97     544.25
 48.07     594.00
 48.17     561.00
 48.27     577.00
 48.37     579.00
 48.47     560.76
 48.57     513.00
 48.67     538.00
 48.77     528.00
 48.87     546.00
 48.97     554.00
 49.07     529.00
 49.17     552.00
 49.27     593.00
 49.37     679.00
 49.47     647.00
 49.57     780.00
 49.67     849.94
 49.77    1166.68
 49.87    1509.00
 49.97    1801.00
 50.07    2257.00
 50.17    2394.39
 50.27    2422.00
 50.37    2322.34
 50.47    1830.00
 50.57    1403.00
 50.67    1173.80
 50.77     761.00
 50.87     735.00
 50.97     664.34
 51.07     655.28
 51.17     584.31
 51.27     603.00
 51.37     613.00
 51.47     615.51
 51.57     535.61
 51.67     535.00
 51.77     556.15
 51.87     544.00
 51.97     522.38
 52.07     530.39
 52.17     523.54
 52.27     556.00
 52.37     543.00
 52.47     615.00
 52.57     515.87
 52.67     603.00
 52.77     590.00
 52.87     659.00
 52.97     715.10
 53.07     792.12
 53.17     894.00
 53.27    1088.00
 53.37    1142.00
 53.47    1220.00
 53.57    1175.21
 53.67    1194.03
 53.77    1103.00
 53.87     912.00
 53.97     754.62
 54.07     706.00
 54.17     655.00
 54.27     604.18
 54.37     575.00
 54.47     514.20
 54.57     579.64
 54.67     565.00
 54.77     517.12
 54.87     527.00
 54.97     548.00
 55.07     587.00
 55.17     589.51
 55.27     588.00
 55.37     554.00
 55.47     559.00
 55.57     557.00
 55.67     595.00
 55.77     599.00
 55.87     603.83
 55.97     615.57
 56.07     728.62
 56.17     770.00
 56.27     951.00
 56.37    1138.99
 56.47    1425.00
 56.57    1818.15
 56.67    2193.00
 56.77    2530.06
 56.87    2718.28
 56.97    2576.84
 57.07    2452.00
 57.17    2106.00
 57.27    1572.00
 57.37    1370.16
 57.47    1112.86
 57.57     828.00
 57.67     785.00
 57.77     674.00
 57.87     707.00
 57.97     701.00
 58.07     718.31
 58.17     706.00
 58.27     772.00
 58.37     855.33
 58.47     946.34
 58.57    1043.00
 58.67    1168.00
 58.77    1252.00
 58.87    1450.00
 58.97    1485.00
 59.07    1553.00
 59.17    1523.00
 59.27    1380.00
 59.37    1405.00
 59.47    1263.67
 59.57    1164.00
 59.67    1230.00
 59.77    1136.29
 59.87    1243.00
 59.97    1234.49
 60.07    1493.00
 60.17    1485.35
 60.27    1646.00
 60.37    1450.72
 60.47    1392.00
 60.57    1308.00
 60.67    1081.00
 60.77     919.00
 60.87     831.00
 60.97     715.00
 61.07     644.00
 61.17     662.00
 61.27     643.00
 61.37     686.09
 61.47     655.00
 61.57     708.00
 61.67     870.00
 61.77    1005.00
 61.87    1148.00
 61.97    1206.00
 62.07    1368.00
 62.17    1334.00
 62.27    1363.00
 62.37    1275.11
 62.47    1154.00
 62.57    1002.93
 62.67     878.00
 62.77     766.00
 62.87     667.49
 62.97     668.00
 63.07     595.28
 63.17     619.00
 63.27     573.00
 63.37     592.00
 63.47     597.00
 63.57     571.49
 63.67     611.00
 63.77     600.00
 63.87     648.00
 63.97     640.00
 64.07     731.54
 64.17     805.54
 64.27     803.00
 64.37     892.00
 64.47    1016.07
 64.57     953.43
 64.67    1045.00
 64.77    1022.00
 64.87    1024.15
 64.97     942.00
 65.07     815.00
 65.17     766.65
 65.27     692.61
 65.37     680.20
 65.47     689.00
 65.57     654.00
 65.67     587.00
 65.77     591.00
 65.87     550.00
 65.97     581.00
 66.07     545.00
 66.17     559.47
 66.27     538.00
 66.37     522.93
 66.47     560.02
 66.57     571.00
 66.67     572.00
 66.77     536.00
 66.87     577.26
 66.97     634.29
 67.07     661.00
 67.17     726.38
 67.27     789.00
 67.37     863.17
 67.47    1080.00
 67.57    1284.43
 67.67    1553.00
 67.77    1871.23
 67.87    2166.36
 67.97    2340.00
 68.07    2496.00
 68.17    2450.00
 68.27    2226.82
 68.37    2071.00
 68.47    1770.00
 68.57    1542.00
 68.67    1216.15
 68.77    1083.00
 68.87     889.00
 68.97     796.00
 69.07     651.70
 69.17     658.00
 69.27     663.00
 69.37     635.42
 69.47     567.29
 69.57     546.28
 69.67     565.00
 69.77     600.43
 69.87     574.00
 69.97     540.00
 70.07     551.35
 70.17     610.88
 70.27     530.20
 70.37     576.00
 70.47     544.00
 70.57     551.00
 70.67     593.00
 70.77     597.00
 70.87     572.73
 70.97     620.13
 71.07     625.00
 71.17     782.43
 71.27     870.37
 71.37     959.00
 71.47    1144.05
 71.57    1325.00
 71.67    1445.00
 71.77    1578.80
 71.87    1751.00
 71.97    1987.00
 72.07    1868.00
 72.17    1940.38
 72.27    1761.00
 72.37    1671.93
 72.47    1470.00
 72.57    1251.54
 72.67    1140.00
 72.77    1094.05
 72.87     928.00
 72.97     878.33
 73.07     734.00
 73.17     716.00
 73.27     628.00
 73.37     690.00
 73.47     615.77
 73.57     586.00
 73.67     658.86
 73.77     635.00
 73.87     610.00
 73.97     529.00
 74.07     622.20
 74.17     544.10
 74.27     538.96
 74.37     587.00
 74.47     599.00
 74.57     588.00
 74.67     620.00
 74.77     640.00
 74.87     556.53
 74.97     633.00
 75.07     511.10
 75.17     573.53
 75.27     590.65
 75.37     532.12
 75.47     569.00
 75.57     546.00
 75.67     624.00
 75.77     533.54
 75.87     639.00
 75.97     573.15
 76.07     572.00
 76.17     632.00
 76.27     682.00
 76.37     653.36
 76.47     743.00
 76.57     691.00
 76.67     658.42
 76.77     702.74
 76.87     663.00
 76.97     674.00
 77.07     617.00
 77.17     637.95
 77.27     630.21
 77.37     536.00
 77.47     555.00
 77.57     538.00
 77.67     509.67
 77.77     539.55
 77.87     501.95
 77.97     544.77
 78.07     536.00
 78.17     495.00
 78.27     544.00
 78.37     539.47
 78.47     540.25
 78.57     561.29
 78.67     560.70
 78.77     520.00
 78.87     519.00
 78.97     548.65
 79.07     496.00
 79.17     497.00
 79.27     566.38
 79.37     483.00
 79.47     507.00
 79.57     517.00
 79.67     515.77
 79.77     536.00
 79.87     538.66
 79.97     548.00
 80.07     597.11
 80.17     572.91
 80.27     538.00
 80.37     563.14
 80.47     566.00
 80.57     614.00
 80.67     623.97
 80.77     619.00
 80.87     634.59
 80.97     730.00
 81.07     721.00
 81.17     740.00
 81.27     772.00
 81.37     783.00
 81.47     754.00
 81.57     754.00
 81.67     716.00
 81.77     708.00
 81.87     688.21
 81.97     681.21
 82.07     664.00
 82.17     674.00
 82.27     684.72
 82.37     641.00
 82.47     575.39
 82.57     632.00
 82.67     600.05
 82.77     603.00
 82.87     549.38
 82.97     553.97
 83.07     523.00
 83.17     538.00
 83.27     582.86
 83.37     574.00
 83.47     562.00
 83.57     542.00
 83.67     564.50
 83.77     532.00
 83.87     609.96
 83.97     567.00
 84.07     531.00
 84.17     585.43
 84.27     557.00
 84.37     535.02
 84.47     547.00
 84.57     561.00
 84.67     574.15
 84.77     558.00
 84.87     540.78
 84.97     526.78
 85.07     548.80
 85.17     576.00
 85.27     535.00
 85.37     523.00
 85.47     519.00
 85.57     558.00
 85.67     520.00
 85.77     519.00
 85.87     558.70
 85.97     500.42
 86.07     544.66
 86.17     539.87
 86.27     555.09
 86.37     562.00
 86.47     548.00
 86.57     571.00
 86.67     554.00
 86.77     587.00
 86.87     551.29
 86.97     605.00
 87.07     642.00
 87.17     606.29
 87.27     596.12
 87.37     651.67
 87.47     645.00
 87.57     583.75
 87.67     647.00
 87.77     666.00
 87.87     633.00
 87.97     620.00
 88.07     664.00
 88.17     567.28
 88.27     626.00
 88.37     542.00
 88.47     645.00
 88.57     542.21
 88.67     591.25
 88.77     575.45
 88.87     563.27
 88.97     562.00
 89.07     586.00
 89.17     550.92
 89.27     580.00
 89.37     584.00
 89.47     615.00
 89.57     545.00
 89.67     602.84
 89.77     595.00
 89.87     576.00
 89.97     527.00
 90.07     538.00
 90.17     584.92
 90.27     511.00
 90.37     549.00
 90.47     525.30
 90.57     539.04
 90.67     532.00
 90.77     558.07
 90.87     558.00
 90.97     527.00
 91.07     514.47
 91.17     508.00
 91.27     565.00
 91.37     516.00
 91.47     548.00
 91.57     502.00
 91.67     496.00
 91.77     554.90
 91.87     590.28
 91.97     588.32
 92.07     571.85
 92.17     605.05
 92.27     568.00
 92.37     587.00
 92.47     651.00
 92.57     685.88
 92.67     689.00
 92.77     678.00
 92.87     716.68
 92.97     745.00
 93.07     713.00
 93.17     766.00
 93.27     787.71
 93.37     749.91
 93.47     778.00
 93.57     770.00
 93.67     788.76
 93.77     907.00
 93.87     830.27
 93.97     879.27
 94.07     833.47
 94.17     906.00
 94.27     862.00
 94.37     838.89
 94.47     873.00
 94.57     821.74
 94.67     908.00
 94.77     995.00
 94.87     915.00
 94.97     948.00
 95.07     922.00
 95.17     855.00
 95.27     877.00
 95.37     802.00
 95.47     799.00
 95.57     769.00
 95.67     735.00
 95.77     692.00
 95.87     660.00
 95.97     686.00
 96.07     656.88
 96.17     701.00
 96.27     707.00
 96.37     732.57
 96.47     835.00
 96.57     878.00
 96.67     958.45
 96.77    1026.00
 96.87    1107.18
 96.97    1165.00
 97.07    1247.00
 97.17    1288.00
 97.27    1410.00
 97.37    1397.00
 97.47    1400.00
 97.57    1441.00
 97.67    1427.54
 97.77    1468.00
 97.87    1407.00
 97.97    1282.00
 98.07    1206.24
 98.17    1182.17
 98.27    1060.86
 98.37     998.00
 98.47     905.01
 98.57     873.05
 98.67     878.49
 98.77     850.25
 98.87     844.26
 98.97     792.00
 99.07     835.80
 99.17     855.08
 99.27     855.00
 99.37     938.00
 99.47    1043.33
 99.57    1088.00
 99.67    1245.00
 99.77    1302.00
 99.87    1432.71
 99.97    1522.00
100.07    1621.33
100.17    1814.00
100.27    1867.00
100.37    1926.95
100.47    2022.35
100.57    2111.84
100.67    2137.00
100.77    2038.42
100.87    1973.15
100.97    2002.91
101.07    1916.00
101.17    1843.96
101.27    1842.30
101.37    1701.06
101.47    1615.56
101.57    1484.00
101.67    1506.29
101.77    1438.00
101.87    1369.49
101.97    1226.00
102.07    1163.00
102.17    1161.00
102.27    1119.00
102.37    1104.00
102.47    1101.11
102.57    1059.00
102.67    1079.75
102.77    1075.37
102.87     971.00
102.97     928.68
103.07     971.33
103.17     843.00
103.27     800.00
103.37     763.00
103.47     783.00
103.57     781.00
103.67     707.00
103.77     652.35
103.87     593.00
103.97     638.00
104.07     642.67
104.17     571.00
104.27     563.00
104.37     564.02
104.47     589.00
104.57     587.98
104.67     582.00
104.77     548.00
104.87     524.00
104.97     544.12
105.07     557.39
105.17     553.00
105.27     539.00
105.37     540.00
105.47     537.63
105.57     519.00
105.67     576.22
105.77     527.00
105.87     577.00
105.97     542.00
106.07     589.61
106.17     603.00
106.27     579.00
106.37     613.00
106.47     597.62
106.57     654.38
106.67     668.00
106.77     612.00
106.87     698.97
106.97     679.00
107.07     674.00
107.17     688.86
107.27     682.00
107.37     682.00
107.47     665.67
107.57     749.37
107.67     703.00
107.77     644.00
107.87     717.00
107.97     655.00
108.07     709.59
108.17     713.00
108.27     673.56
108.37     688.17
108.47     687.00
108.57     716.00
108.67     686.00
108.77     687.00
108.87     651.92
108.97     663.00
109.07     664.00
109.17     627.00
109.27     667.00
109.37     626.84
109.47     667.00
109.57     642.00
109.67     648.00
109.77     629.00
109.87     607.30
109.97     623.00
110.07     601.75
110.17     613.15
110.27     561.00
110.37     510.89
110.47     583.00
110.57     597.00
110.67     577.11
110.77     559.00
110.87     564.00
110.97     587.00
111.07     501.96
111.17     525.00
111.27     521.00
111.37     542.00
111.47     554.39
111.57     525.00
111.67     528.72
111.77     525.00
111.87     560.15
111.97     620.00
112.07     538.00
112.17     557.78
112.27     580.94
112.37     591.00
112.47     550.29
112.57     591.00
112.67     576.85
112.77     630.00
112.87     631.05
112.97     617.40
113.07     705.50
113.17     698.06
113.27     711.00
113.37     762.00
113.47     785.00
113.57     767.00
113.67     816.00
113.77     747.00
113.87     831.97
113.97     965.00
114.07     943.00
114.17    1044.00
114.27    1086.00
114.37    1240.11
114.47    1328.28
114.57    1319.00
114.67    1544.21
114.77    1682.82
114.87    1975.00
114.97    2143.00
115.07    2229.94
115.17    2470.00
115.27    2820.00
115.37    3160.46
115.47    3480.00
115.57    3766.00
115.67    4131.04
115.77    4377.00
115.87    4716.00
115.97    5231.00
116.07    5558.00
116.17    5852.35
116.27    6369.00
116.37    6472.00
116.47    6747.00
116.57    6943.00
116.67    6883.40
116.77    6767.94
116.87    6698.00
116.97    6477.19
117.07    6418.00
117.17    5983.00
117.27    5866.67
117.37    5254.00
117.47    4871.00
117.57    4603.00
117.67    4279.00
117.77    3835.47
117.87    3620.00
117.97    3370.00
118.07    2953.00
118.17    2555.00
118.27    2329.00
118.37    1985.00
118.47    1711.00
118.57    1573.00
118.67    1380.79
118.77    1249.00
118.87    1139.92
118.97    1035.00
119.07     956.00
119.17     887.87
119.27     878.00
119.37     791.00
119.47     779.00
119.57     701.00
119.67     709.00
119.77     659.00
119.87     644.00
119.97     616.32
120.07     633.00
120.17     549.00
120.27     584.00
120.37     560.00
120.47     569.00
120.57     572.00
120.67     554.95
120.77     536.00
120.87     553.00
120.97     571.00
121.07     547.00
121.17     590.00
121.27     575.00
121.37     550.00
121.47     610.00
121.57     568.12
121.67     542.00
121.77     545.00
121.87     604.93
121.97     558.73
122.07     576.00
122.17     625.00
122.27     604.73
122.37     605.57
122.47     645.00
122.57     630.00
122.67     641.00
122.77     670.00
122.87     643.69
122.97     657.40
123.07     650.12
123.17     626.00
123.27     666.04
123.37     600.99
123.47     667.00
123.57     637.92
123.67     655.00
123.77     615.53
123.87     613.24
123.97     571.98
124.07     590.00
124.17     631.00
124.27     569.89
124.37     604.85
124.47     613.00
124.57     614.00
124.67     565.00
124.77     624.17
124.87     560.00
124.97     586.00
