  9.97     589.00
 10.07     616.00
 10.17     599.79
 10.27     579.08
 10.37     572.00
 10.47     592.43
 10.57     593.00
 10.67     557.00
 10.77     543.00
 10.87     606.00
 10.97     576.52
 11.07     516.66
 11.17     575.63
 11.27     525.41
 11.37     559.56
 11.47     560.66
 11.57     580.00
 11.67     607.00
 11.77     561.46
 11.87     640.00
 11.97     662.00
 12.07     664.00
 12.17     673.00
 12.27     700.52
 12.37     595.00
 12.47     598.00
 12.57     574.04
 12.67     597.00
 12.77     616.00
 12.87     611.44
 12.97     609.22
 13.07     601.00
 13.17     609.59
 13.27     571.00
 13.37     533.00
 13.47     543.00
 13.57     589.00
 13.67     546.00
 13.77     572.00
 13.87     553.73
 13.97     570.00
 14.07     510.00
 14.17     536.07
 14.27     549.00
 14.37     612.00
 14.47     546.59
 14.57     599.00
 14.67     531.00
 14.77     507.00
 14.87     603.93
 14.97     510.00
 15.07     546.00
 15.17     544.00
 15.27     557.27
 15.37     556.00
 15.47     529.00
 15.57     511.00
 15.67     540.00
 15.77     536.00
 15.87     588.00
 15.97     547.30
 16.07     540.00
 16.17     551.00
 16.27     558.00
 16.37     574.67
 16.47     512.00
 16.57     517.00
 16.67     541.00
 16.77     554.00
 16.87     517.74
 16.97     590.73
 17.07     567.24
 17.17     572.00
 17.27     539.44
 17.37     572.00
 17.47     597.27
 17.57     594.33
 17.67     583.41
 17.77     566.26
 17.87     553.40
 17.97     561.00
 18.07     583.00
 18.17     563.72
 18.27     585.00
 18.37     522.93
 18.47     572.84
 18.57     570.00
 18.67     536.82
 18.77     581.00
 18.87     598.65
 18.97     523.11
 19.07     552.00
 19.17     574.00
 19.27     553.00
 19.37     547.67
 19.47     538.00
 19.57     514.97
 19.67     556.00
 19.77     544.00
 19.87     530.00
 19.97     573.69
 20.07     545.00
 20.17     541.00
 20.27     532.00
 20.37     501.00
 20.47     580.00
 20.57     535.00
 20.67     492.00
 20.77     544.00
 20.87     552.00
 20.97     534.00
 21.07     521.00
 21.17     540.00
 21.27     590.84
 21.37     572.00
 21.47     560.00
 21.57     533.00
 21.67     585.77
 21.77     526.67
 21.87     584.00
 21.97     602.00
 22.07     582.65
 22.17     551.00
 22.27     572.00
 22.37     541.97
 22.47     592.00
 22.57     540.00
 22.67     548.00
 22.77     570.00
 22.87     534.47
 22.97     576.00
 23.07     555.00
 23.17     561.00
 23.27     526.00
 23.37     569.00
 23.47     540.62
 23.57     538.00
 23.67     600.00
 23.77     580.00
 23.87     536.79
 23.97     559.08
 24.07     558.00
 24.17     567.99
 24.27     566.00
 24.37     614.00
 24.47     605.00
 24.57     628.00
 24.67     613.00
 24.77     588.88
 24.87     615.73
 24.97     578.80
 25.07     566.00
 25.17     578.00
 25.27     547.18
 25.37     543.00
 25.47     545.00
 25.57     611.00
 25.67     546.41
 25.77     555.74
 25.87     567.00
 25.97     525.19
 26.07     495.00
 26.17     579.00
 26.27     497.27
 26.37     546.00
 26.47     548.00
 26.57     553.00
 26.67     563.64
 26.77     539.00
 26.87     557.38
 26.97     564.00
 27.07     515.00
 27.17     580.00
 27.27     538.00
 27.37     499.84
 27.47     551.00
 27.57     564.88
 27.67     544.73
 27.77     577.89
 27.87     629.00
 27.97     673.08
 28.07     747.00
 28.17     839.00
 28.27     936.00
 28.37     929.10
 28.47     799.00
 28.57     715.78
 28.67     728.76
 28.77     753.00
 28.87     815.00
 28.97     802.00
 29.07     771.10
 29.17     680.00
 29.27     687.00
 29.37     642.00
 29.47     574.20
 29.57     564.24
 29.67     545.36
 29.77     576.00
 29.87     568.00
 29.97     539.31
 30.07     578.00
 30.17     573.00
 30.27     533.00
 30.37     555.42
 30.47     537.00
 30.57     607.00
 30.67     576.24
 30.77     576.00
 30.87     598.00
 30.97     602.33
 31.07     610.00
 31.17     588.00
 31.27     507.00
 31.37     549.34
 31.47     533.00
 31.57     529.00
 31.67     544.09
 31.77     544.75
 31.87     569.00
 31.97     516.16
 32.07     504.00
 32.17     511.00
 32.27     556.00
 32.37     582.00
 32.47     497.96
 32.57     532.00
 32.67     545.88
 32.77     543.00
 32.87     526.00
 32.97     521.00
 33.07     494.85
 33.17     523.00
 33.27     542.00
 33.37     521.84
 33.47     565.00
 33.57     602.88
 33.67     599.63
 33.77     742.00
 33.87     850.00
 33.97     998.00
 34.07    1039.00
 34.17    1039.00
 34.27     890.00
 34.37     789.00
 34.47     668.00
 34.57     622.00
 34.67     550.00
 34.77     524.38
 34.87     544.07
 34.97     558.00
 35.07     534.21
 35.17     551.36
 35.27     524.00
 35.37     495.00
 35.47     558.00
 35.57     547.24
 35.67     513.00
 35.77     546.13
 35.87     515.07
 35.97     479.06
 36.07     512.00
 36.17     496.00
 36.27     502.34
 36.37     525.00
 36.47     512.00
 36.57     457.00
 36.67     539.00
 36.77     513.00
 36.87     523.18
 36.97     499.00
 37.07     487.60
 37.17     501.37
 37.27     497.00
 37.37     523.00
 37.47     515.00
 37.57     508.00
 37.67     476.00
 37.77     515.50
 37.87     529.24
 37.97     519.00
 38.07     508.00
 38.17     540.00
 38.27     502.00
 38.37     489.00
 38.47     468.00
 38.57     468.00
 38.67     486.00
 38.77     513.00
 38.87     503.70
 38.97     458.00
 39.07     506.00
 39.17     522.10
 39.27     504.00
 39.37     512.00
 39.47     491.51
 39.57     516.00
 39.67     533.23
 39.77     493.00
 39.87     496.00
 39.97     470.00
 40.07     514.00
 40.17     441.00
 40.27     498.00
 40.37     521.63
 40.47     510.00
 40.57     526.91
 40.67     503.00
 40.77     427.00
 40.87     505.00
 40.97     470.23
 41.07     476.00
 41.17     504.00
 41.27     519.29
 41.37     500.00
 41.47     460.94
 41.57     478.00
 41.67     530.37
 41.77     474.00
 41.87     479.00
 41.97     495.00
 42.07     462.00
 42.17     494.00
 42.27     520.00
 42.37     562.00
 42.47     616.08
 42.57     577.79
 42.67     542.00
 42.77     626.12
 42.87     641.36
 42.97     605.00
 43.07     573.58
 43.17     565.97
 43.27     536.00
 43.37     509.00
 43.47     518.00
 43.57     476.00
 43.67     468.00
 43.77     512.00
 43.87     500.00
 43.97     504.00
 44.07     484.00
 44.17     492.00
 44.27     534.00
 44.37     459.00
 44.47     481.26
 44.57     518.00
 44.67     485.29
 44.77     506.85
 44.87     505.00
 44.97     486.86
 45.07     465.71
 45.17     507.00
 45.27     517.00
 45.37     560.00
 45.47     465.00
 45.57     495.00
 45.67     531.00
 45.77     463.31
 45.87     457.50
 45.97     498.00
 46.07     483.00
 46.17     496.00
 46.27     494.00
 46.37     511.00
 46.47     510.00
 46.57     517.33
 46.67     521.00
 46.77     520.00
 46.87     469.35
 46.97     471.00
 47.07     515.43
 47.17     518.00
 47.27     532.00
 47.37     544.19
 47.47     554.00
 47.57     574.00
 47.67     546.00
 47.77     555.91
 47.87     579.85
 47.97     626.06
 48.07     564.00
 48.17     588.00
 48.27     552.00
 48.37     571.53
 48.47     538.00
 48.57     523.34
 48.67     496.26
 48.77     556.83
 48.87     560.00
 48.97     554.49
 49.07     584.83
 49.17     561.00
 49.27     593.00
 49.37     619.00
 49.47     648.00
 49.57     721.23
 49.67     812.00
 49.77    1008.00
 49.87    1341.01
 49.97    1596.02
 50.07    2130.00
 50.17    2357.00
 50.27    2378.23
 50.37    2209.47
 50.47    1932.00
 50.57    1495.00
 50.67    1143.00
 50.77     902.00
 50.87     783.00
 50.97     680.00
 51.07     682.00
 51.17     628.00
 51.27     586.00
 51.37     616.42
 51.47     571.21
 51.57     546.00
 51.67     602.00
 51.77     549.00
 51.87     521.00
 51.97     520.64
 52.07     556.00
 52.17     543.00
 52.27     532.00
 52.37     581.00
 52.47     574.00
 52.57     584.00
 52.67     522.01
 52.77     649.00
 52.87     612.00
 52.97     721.35
 53.07     764.00
 53.17     894.24
 53.27    1016.00
 53.37    1088.75
 53.47    1206.00
 53.57    1181.00
 53.67    1153.39
 53.77    1018.00
 53.87     878.00
 53.97     848.00
 54.07     758.00
 54.17     644.06
 54.27     649.17
 54.37     585.24
 54.47     616.00
 54.57     570.24
 54.67     547.60
 54.77     563.94
 54.87     525.90
 54.97     509.50
 55.07     589.00
 55.17     552.00
 55.27     616.00
 55.37     573.77
 55.47     541.82
 55.57     587.00
 55.67     635.00
 55.77     608.00
 55.87     571.58
 55.97     587.40
 56.07     733.00
 56.17     812.56
 56.27     896.00
 56.37    1152.05
 56.47    1316.00
 56.57    1673.00
 56.67    2052.49
 56.77    2276.31
 56.87    2560.00
 56.97    2554.00
 57.07    2375.00
 57.17    2190.00
 57.27    1851.00
 57.37    1449.00
 57.47    1161.00
 57.57    1021.33
 57.67     911.00
 57.77     761.00
 57.87     739.48
 57.97     665.00
 58.07     704.00
 58.17     712.50
 58.27     733.00
 58.37     807.00
 58.47     889.00
 58.57     937.00
 58.67    1045.00
 58.77    1185.15
 58.87    1244.00
 58.97    1309.00
 59.07    1360.00
 59.17    1349.00
 59.27    1312.67
 59.37    1256.25
 59.47    1245.00
 59.57    1202.00
 59.67    1103.00
 59.77    1179.00
 59.87    1196.00
 59.97    1322.00
 60.07    1356.49
 60.17    1528.00
 60.27    1566.00
 60.37    1514.00
 60.47    1387.00
 60.57    1343.00
 60.67    1136.00
 60.77    1055.00
 60.87     821.18
 60.97     752.21
 61.07     677.00
 61.17     652.00
 61.27     686.48
 61.37     637.97
 61.47     717.00
 61.57     732.00
 61.67     832.00
 61.77     892.99
 61.87    1039.00
 61.97    1137.00
 62.07    1350.00
 62.17    1371.00
 62.27    1392.93
 62.37    1342.98
 62.47    1223.00
 62.57    1120.46
 62.67     928.98
 62.77     876.37
 62.87     736.38
 62.97     724.79
 63.07     626.00
 63.17     590.00
 63.27     593.00
 63.37     580.30
 63.47     541.00
 63.57     570.54
 63.67     580.00
 63.77     621.00
 63.87     580.49
 63.97     645.00
 64.07     710.58
 64.17     782.00
 64.27     802.00
 64.37     863.00
 64.47     970.51
 64.57     960.00
 64.67    1037.00
 64.77    1102.00
 64.87     917.83
 64.97     988.69
 65.07     862.00
 65.17     796.18
 65.27     735.17
 65.37     722.00
 65.47     692.09
 65.57     654.72
 65.67     586.00
 65.77     646.26
 65.87     534.00
 65.97     531.10
 66.07     609.00
 66.17     581.00
 66.27     542.00
 66.37     538.00
 66.47     570.00
 66.57     553.00
 66.67     545.00
 66.77     600.00
 66.87     588.00
 66.97     633.11
 67.07     657.77
 67.17     685.00
 67.27     711.42
 67.37     877.00
 67.47     969.00
 67.57    1202.00
 67.67    1439.00
 67.77    1653.00
 67.87    1953.00
 67.97    2137.40
 68.07    2405.00
 68.17    2358.95
 68.27    2370.00
 68.37    2105.00
 68.47    1872.00
 68.57    1722.47
 68.67    1454.00
 68.77    1135.00
 68.87     938.00
 68.97     857.00
 69.07     735.81
 69.17     756.00
 69.27     625.00
 69.37     608.00
 69.47     594.00
 69.57     619.42
 69.67     561.00
 69.77     580.00
 69.87     549.00
 69.97     629.00
 70.07     521.00
 70.17     583.00
 70.27     570.17
 70.37     598.00
 70.47     609.19
 70.57     582.79
 70.67     552.00
 70.77     625.21
 70.87     627.00
 70.97     582.00
 71.07     646.10
 71.17     665.00
 71.27     797.00
 71.37     884.79
 71.47    1067.00
 71.57    1174.00
 71.67    1320.03
 71.77    1495.00
 71.87    1740.00
 71.97    1905.00
 72.07    1900.00
 72.17    1933.03
 72.27    1807.00
 72.37    1605.63
 72.47    1511.00
 72.57    1335.00
 72.67    1236.96
 72.77    1047.00
 72.87     896.00
 72.97     810.74
 73.07     736.44
 73.17     768.00
 73.27     738.46
 73.37     645.00
 73.47     611.14
 73.57     604.82
 73.67     647.00
 73.77     620.00
 73.87     563.38
 73.97     608.00
 74.07     619.06
 74.17     556.00
 74.27     655.00
 74.37     576.00
 74.47     598.00
 74.57     614.00
 74.67     594.96
 74.77     617.00
 74.87     617.00
 74.97     631.00
 75.07     583.00
 75.17     628.00
 75.27     599.00
 75.37     601.00
 75.47     514.75
 75.57     540.00
 75.67     565.00
 75.77     599.00
 75.87     608.00
 75.97     606.00
 76.07     619.24
 76.17     634.00
 76.27     664.00
 76.37     737.00
 76.47     692.00
 76.57     717.61
 76.67     678.00
 76.77     664.96
 76.87     712.34
 76.97     686.96
 77.07     650.00
 77.17     580.00
 77.27     587.00
 77.37     622.06
 77.47     594.17
 77.57     588.86
 77.67     541.00
 77.77     573.40
 77.87     515.00
 77.97     559.72
 78.07     479.70
 78.17     528.33
 78.27     514.00
 78.37     547.00
 78.47     503.00
 78.57     512.00
 78.67     516.56
 78.77     522.00
 78.87     503.17
 78.97     551.00
 79.07     486.00
 79.17     492.00
 79.27     483.00
 79.37     503.37
 79.47     501.00
 79.57     494.00
 79.67     528.92
 79.77     514.00
 79.87     559.83
 79.97     585.00
 80.07     536.46
 80.17     563.94
 80.27     591.67
 80.37     562.00
 80.47     585.00
 80.57     588.00
 80.67     574.23
 80.77     679.83
 80.87     646.00
 80.97     715.09
 81.07     683.00
 81.17     704.52
 81.27     748.00
 81.37     771.42
 81.47     765.00
 81.57     751.00
 81.67     736.00
 81.77     711.00
 81.87     774.00
 81.97     726.98
 82.07     691.00
 82.17     697.00
 82.27     641.95
 82.37     606.00
 82.47     596.61
 82.57     595.29
 82.67     588.00
 82.77     582.42
 82.87     536.00
 82.97     575.78
 83.07     593.33
 83.17     513.56
 83.27     528.00
 83.37     516.03
 83.47     526.00
 83.57     576.95
 83.67     574.36
 83.77     546.00
 83.87     520.00
 83.97     595.58
 84.07     558.00
 84.17     553.00
 84.27     576.00
 84.37     569.99
 84.47     563.00
 84.57     527.00
 84.67     570.00
 84.77     543.00
 84.87     500.00
 84.97     541.90
 85.07     499.13
 85.17     511.00
 85.27     519.00
 85.37     572.00
 85.47     499.61
 85.57     539.55
 85.67     512.00
 85.77     532.73
 85.87     530.00
 85.97     551.00
 86.07     526.38
 86.17     507.00
 86.27     494.98
 86.37     568.00
 86.47     561.00
 86.57     528.00
 86.67     568.00
 86.77     587.00
 86.87     528.01
 86.97     623.00
 87.07     602.00
 87.17     637.07
 87.27     615.00
 87.37     618.00
 87.47     582.05
 87.57     633.00
 87.67     636.36
 87.77     592.55
 87.87     625.00
 87.97     564.81
 88.07     631.88
 88.17     565.76
 88.27     583.00
 88.37     606.00
 88.47     523.74
 88.57     527.44
 88.67     593.00
 88.77     538.71
 88.87     587.00
 88.97     544.00
 89.07     603.00
 89.17     626.00
 89.27     599.00
 89.37     623.00
 89.47     565.00
 89.57     622.97
 89.67     566.00
 89.77     516.00
 89.87     600.00
 89.97     613.50
 90.07     587.03
 90.17     572.00
 90.27     506.00
 90.37     549.00
 90.47     518.00
 90.57     518.00
 90.67     557.53
 90.77     526.00
 90.87     549.58
 90.97     546.00
 91.07     540.00
 91.17     517.00
 91.27     487.00
 91.37     549.00
 91.47     476.00
 91.57     526.00
 91.67     562.74
 91.77     511.15
 91.87     547.00
 91.97     574.39
 92.07     525.00
 92.17     556.00
 92.27     568.00
 92.37     547.03
 92.47     590.00
 92.57     664.29
 92.67     631.00
 92.77     667.00
 92.87     658.00
 92.97     687.00
 93.07     709.00
 93.17     771.00
 93.27     751.00
 93.37     799.00
 93.47     779.00
 93.57     794.00
 93.67     804.00
 93.77     836.00
 93.87     830.00
 93.97     829.00
 94.07     864.40
 94.17     778.52
 94.27     889.10
 94.37     801.16
 94.47     886.33
 94.57     789.00
 94.67     942.00
 94.77     854.24
 94.87     826.48
 94.97     820.46
 95.07     814.44
 95.17     864.00
 95.27     877.00
 95.37     877.00
 95.47     777.72
 95.57     750.12
 95.67     754.43
 95.77     706.00
 95.87     673.00
 95.97     648.07
 96.07     721.00
 96.17     719.01
 96.27     741.00
 96.37     780.97
 96.47     790.00
 96.57     751.00
 96.67     916.14
 96.77     926.00
 96.87     958.00
 96.97    1056.49
 97.07    1206.00
 97.17    1256.00
 97.27    1350.00
 97.37    1276.00
 97.47    1338.25
 97.57    1402.85
 97.67    1525.00
 97.77    1344.87
 97.87    1414.10
 97.97    1333.00
 98.07    1295.61
 98.17    1277.30
 98.27    1103.20
 98.37    1030.68
 98.47    1048.00
 98.57     933.00
 98.67     895.07
 98.77     871.00
 98.87     847.00
 98.97     816.00
 99.07     846.23
 99.17     894.00
 99.27     899.00
 99.37     923.39
 99.47     988.37
 99.57     997.00
 99.67    1168.12
 99.77    1206.00
 99.87    1255.00
 99.97    1403.48
100.07    1550.00
100.17    1663.00
100.27    1723.00
100.37    1815.00
100.47    1925.00
100.57    1953.00
100.67    1931.50
100.77    1985.00
100.87    2033.00
100.97    1925.58
101.07    1851.00
101.17    1878.54
101.27    1853.00
101.37    1729.84
101.47    1674.00
101.57    1637.00
101.67    1547.00
101.77    1458.00
101.87    1428.79
101.97    1291.24
102.07    1312.00
102.17    1187.00
102.27    1220.00
102.37    1155.12
102.47    1134.15
102.57    1126.00
102.67    1087.84
102.77    1093.00
102.87    1059.85
102.97    1040.00
103.07     985.00
103.17     935.00
103.27     857.58
103.37     895.00
103.47     814.56
103.57     804.00
103.67     713.00
103.77     693.93
103.87     651.00
103.97     717.00
104.07     666.94
104.17     640.00
104.27     557.36
104.37     578.00
104.47     619.00
104.57     567.00
104.67     529.80
104.77     598.00
104.87     527.00
104.97     563.00
105.07     539.00
105.17     549.00
105.27     533.45
105.37     543.59
105.47     489.58
105.57     544.00
105.67     577.54
105.77     537.00
105.87     563.00
105.97     519.25
106.07     514.81
106.17     587.00
106.27     600.00
106.37     598.00
106.47     568.76
106.57     605.00
106.67     621.34
106.77     618.00
106.87     701.31
106.97     623.72
107.07     669.00
107.17     705.11
107.27     658.00
107.37     739.32
107.47     689.00
107.57     689.00
107.67     743.66
107.77     655.84
107.87     690.26
107.97     647.00
108.07     728.00
108.17     679.00
108.27     690.00
108.37     669.00
108.47     652.00
108.57     693.76
108.67     678.68
108.77     696.63
108.87     728.00
108.97     681.91
109.07     651.00
109.17     710.98
109.27     681.00
109.37     707.44
109.47     646.69
109.57     609.00
109.67     588.80
109.77     633.00
109.87     640.95
109.97     615.00
110.07     602.00
110.17     592.00
110.27     603.00
110.37     557.95
110.47     555.11
110.57     591.94
110.67     561.00
110.77     525.00
110.87     583.00
110.97     588.00
111.07     569.40
111.17     518.19
111.27     546.00
111.37     547.00
111.47     549.00
111.57     532.00
111.67     525.00
111.77     589.25
111.87     559.00
111.97     576.09
112.07     559.00
112.17     555.00
112.27     581.00
112.37     556.00
112.47     593.88
112.57     605.00
112.67     609.68
112.77     626.84
112.87     595.00
112.97     595.00
113.07     642.29
113.17     629.00
113.27     693.19
113.37     650.00
113.47     668.00
113.57     649.00
113.67     683.38
113.77     752.54
113.87     787.99
113.97     783.51
114.07     835.00
114.17     838.16
114.27     921.99
114.37    1009.00
114.47    1067.00
114.57    1170.00
114.67    1348.33
114.77    1475.53
114.87    1634.56
114.97    1858.00
115.07    1969.71
115.17    2289.00
115.27    2555.00
115.37    2867.00
115.47    3021.36
115.57    3530.63
115.67    3727.99
115.77    4171.36
115.87    4496.34
115.97    4866.00
116.07    5191.79
116.17    5614.15
116.27    5791.96
116.37    6371.66
116.47    6392.85
116.57    6627.51
116.67    6671.00
116.77    6818.89
116.87    6952.00
116.97    6759.00
117.07    6566.76
117.17    6259.00
117.27    6154.26
117.37    5624.00
117.47    5499.86
117.57    4960.25
117.67    4739.25
117.77    4261.87
117.87    3909.00
117.97    3787.00
118.07    3338.00
118.17    2979.00
118.27    2631.00
118.37    2373.00
118.47    2127.52
118.57    1913.00
118.67    1606.00
118.77    1536.00
118.87    1270.00
118.97    1285.70
119.07    1098.00
119.17    1043.91
119.27     904.20
119.37     872.99
119.47     802.00
119.57     789.00
119.67     757.51
119.77     742.00
119.87     674.34
119.97     645.00
120.07     637.00
120.17     610.00
120.27     613.47
120.37     565.00
120.47     573.00
120.57     635.00
120.67     603.00
120.77     557.76
120.87     540.00
120.97     537.79
121.07     521.00
121.17     550.00
121.27     572.00
121.37     554.14
121.47     606.38
121.57     593.00
121.67     569.00
121.77     617.46
121.87     600.00
121.97     623.00
122.07     586.54
122.17     566.85
122.27     584.35
122.37     614.73
122.47     662.44
122.57     631.00
122.67     670.71
122.77     622.00
122.87     658.00
122.97     629.00
123.07     647.00
123.17     625.00
123.27     714.00
123.37     603.40
123.47     592.49
123.57     641.92
123.67     596.00
123.77     601.00
123.87     644.00
123.97     654.00
124.07     602.00
124.17     592.00
124.27     592.00
124.37     575.54
124.47     610.00
124.57     624.33
124.67     570.00
124.77     547.00
124.87     598.00
124.97     533.00
