  9.97     607.96
 10.07     580.00
 10.17     575.18
 10.27     645.00
 10.37     558.00
 10.47     581.00
 10.57     618.48
 10.67     576.34
 10.77     593.94
 10.87     544.45
 10.97     547.00
 11.07     596.00
 11.17     576.00
 11.27     538.27
 11.37     610.87
 11.47     624.20
 11.57     575.11
 11.67     630.00
 11.77     639.00
 11.87     668.00
 11.97     668.00
 12.07     711.00
 12.17     681.00
 12.27     725.75
 12.37     692.89
 12.47     646.00
 12.57     637.00
 12.67     609.00
 12.77     546.00
 12.87     567.35
 12.97     590.00
 13.07     616.93
 13.17     564.00
 13.27     578.35
 13.37     541.02
 13.47     573.00
 13.57     575.00
 13.67     564.00
 13.77     538.00
 13.87     570.00
 13.97     533.68
 14.07     555.00
 14.17     571.77
 14.27     543.00
 14.37     610.00
 14.47     543.01
 14.57     534.33
 14.67     544.00
 14.77     621.00
 14.87     610.54
 14.97     559.00
 15.07     550.00
 15.17     567.00
 15.27     568.83
 15.37     542.00
 15.47     530.15
 15.57     574.00
 15.67     561.63
 15.77     567.34
 15.87     551.83
 15.97     564.00
 16.07     581.00
 16.17     566.28
 16.27     555.63
 16.37     561.00
 16.47     530.00
 16.57     567.00
 16.67     566.00
 16.77     567.00
 16.87     570.04
 16.97     554.00
 17.07     596.00
 17.17     567.00
 17.27     565.03
 17.37     585.97
 17.47     573.00
 17.57     531.00
 17.67     551.00
 17.77     545.00
 17.87     594.08
 17.97     591.00
 18.07     574.00
 18.17     565.75
 18.27     560.00
 18.37     546.38
 18.47     570.00
 18.57     565.00
 18.67     531.08
 18.77     599.89
 18.87     570.00
 18.97     562.00
 19.07     535.47
 19.17     561.00
 19.27     553.00
 19.37     551.59
 19.47     541.00
 19.57     595.66
 19.67     551.00
 19.77     578.00
 19.87     538.00
 19.97     551.00
 20.07     582.00
 20.17     558.00
 20.27     541.71
 20.37     574.00
 20.47     573.00
 20.57     556.00
 20.67     570.00
 20.77     542.00
 20.87     516.77
 20.97     548.00
 21.07     573.00
 21.17     540.91
 21.27     573.00
 21.37     564.00
 21.47     547.00
 21.57     585.70
 21.67     555.00
 21.77     545.00
 21.87     524.11
 21.97     572.00
 22.07     541.12
 22.17     565.75
 22.27     573.00
 22.37     546.00
 22.47     546.00
 22.57     574.10
 22.67     511.00
 22.77     549.62
 22.87     531.00
 22.97     542.00
 23.07     631.00
 23.17     535.05
 23.27     575.39
 23.37     543.00
 23.47     560.00
 23.57     549.00
 23.67     564.00
 23.77     553.00
 23.87     553.00
 23.97     555.00
 24.07     527.62
 24.17     589.64
 24.27     600.56
 24.37     586.00
 24.47     593.00
 24.57     631.51
 24.67     607.00
 24.77     622.00
 24.87     608.55
 24.97     651.00
 25.07     575.00
 25.17     612.00
 25.27     611.00
 25.37     594.00
 25.47     577.95
 25.57     548.00
 25.67     562.00
 25.77     563.00
 25.87     535.43
 25.97     510.97
 26.07     571.81
 26.17     611.00
 26.27     542.00
 26.37     534.00
 26.47     564.21
 26.57     584.68
 26.67     590.00
 26.77     553.95
 26.87     512.95
 26.97     566.00
 27.07     533.00
 27.17     552.00
 27.27     564.00
 27.37     593.00
 27.47     579.00
 27.57     564.00
 27.67     581.00
 27.77     551.00
 27.87     555.91
 27.97     620.01
 28.07     780.00
 28.17     917.00
 28.27     942.50
 28.37     873.73
 28.47     773.00
 28.57     701.18
 28.67     688.00
 28.77     692.00
 28.87     790.12
 28.97     855.00
 29.07     822.00
 29.17     682.00
 29.27     682.50
 29.37     613.00
 29.47     621.00
 29.57     566.00
 29.67     568.00
 29.77     598.00
 29.87     543.65
 29.97     521.74
 30.07     610.00
 30.17     570.00
 30.27     554.10
 30.37     581.83
 30.47     598.00
 30.57     547.77
 30.67     603.00
 30.77     584.21
 30.87     609.00
 30.97     612.00
 31.07     626.00
 31.17     558.54
 31.27     552.00
 31.37     537.00
 31.47     559.00
 31.57     497.00
 31.67     513.00
 31.77     490.81
 31.87     555.00
 31.97     546.00
 32.07     516.00
 32.17     511.93
 32.27     543.66
 32.37     567.00
 32.47     571.00
 32.57     565.29
 32.67     563.00
 32.77     588.00
 32.87     542.36
 32.97     516.55
 33.07     564.06
 33.17     573.00
 33.27     549.00
 33.37     541.00
 33.47     568.00
 33.57     644.00
 33.67     673.00
 33.77     713.91
 33.87     869.00
 33.97     991.00
 34.07    1096.47
 34.17    1035.37
 34.27     883.00
 34.37     728.00
 34.47     632.00
 34.57     582.81
 34.67     558.00
 34.77     498.00
 34.87     535.00
 34.97     552.00
 35.07     564.25
 35.17     497.68
 35.27     551.00
 35.37     533.00
 35.47     535.00
 35.57     509.00
 35.67     505.00
 35.77     523.00
 35.87     488.00
 35.97     554.00
 36.07     553.42
 36.17     500.00
 36.27     471.00
 36.37     492.33
 36.47     493.60
 36.57     501.00
 36.67     494.00
 36.77     541.03
 36.87     488.00
 36.97     476.00
 37.07     493.00
 37.17     497.00
 37.27     509.00
 37.37     559.00
 37.47     504.00
 37.57     539.24
 37.67     529.78
 37.77     527.00
 37.87     531.00
 37.97     521.00
 38.07     525.00
 38.17     524.01
 38.27     545.22
 38.37     526.88
 38.47     524.00
 38.57     507.96
 38.67     478.00
 38.77     503.74
 38.87     530.71
 38.97     519.00
 39.07     514.00
 39.17     527.00
 39.27     509.00
 39.37     512.00
 39.47     513.00
 39.57     526.69
 39.67     495.00
 39.77     491.00
 39.87     505.00
 39.97     508.00
 40.07     485.00
 40.17     489.00
 40.27     514.45
 40.37     479.00
 40.47     538.26
 40.57     523.04
 40.67     531.00
 40.77     512.00
 40.87     488.71
 40.97     525.30
 41.07     538.00
 41.17     493.34
 41.27     521.00
 41.37     524.97
 41.47     481.84
 41.57     558.00
 41.67     477.00
 41.77     445.00
 41.87     548.62
 41.97     505.00
 42.07     495.00
 42.17     515.00
 42.27     516.85
 42.37     546.00
 42.47     561.03
 42.57     655.31
 42.67     603.00
 42.77     611.26
 42.87     577.00
 42.97     592.00
 43.07     531.00
 43.17     506.00
 43.27     531.00
 43.37     523.34
 43.47     534.58
 43.57     497.00
 43.67     492.00
 43.77     485.00
 43.87     500.00
 43.97     490.69
 44.07     491.00
 44.17     479.00
 44.27     534.00
 44.37     502.00
 44.47     481.00
 44.57     507.00
 44.67     514.00
 44.77     464.00
 44.87     538.12
 44.97     506.00
 45.07     490.90
 45.17     515.56
 45.27     485.81
 45.37     477.00
 45.47     509.00
 45.57     488.00
 45.67     527.28
 45.77     497.00
 45.87     508.00
 45.97     510.00
 46.07     509.19
 46.17     517.00
 46.27     473.95
 46.37     506.00
 46.47     546.70
 46.57     478.00
 46.67     511.50
 46.77     492.00
 46.87     535.00
 46.97     512.41
 47.07     514.00
 47.17     487.00
 47.27     486.00
 47.37     495.96
 47.47     534.00
 47.57     567.00
 47.67     519.00
 47.77     633.00
 47.87     560.05
 47.97     599.00
 48.07     573.00
 48.17     553.00
 48.27     547.37
 48.37     592.00
 48.47     550.00
 48.57     535.00
 48.67     531.00
 48.77     584.00
 48.87     507.38
 48.97     559.00
 49.07     591.00
 49.17     582.88
 49.27     638.00
 49.37     608.00
 49.47     672.31
 49.57     784.00
 49.67     972.00
 49.77    1085.68
 49.87    1511.00
 49.97    1903.00
 50.07    2178.00
 50.17    2456.00
 50.27    2614.00
 50.37    2208.00
 50.47    1879.00
 50.57    1484.00
 50.67    1062.39
 50.77     922.95
 50.87     703.79
 50.97     627.17
 51.07     672.00
 51.17     615.99
 51.27     623.00
 51.37     585.90
 51.47     560.00
 51.57     508.00
 51.67     553.00
 51.77     560.00
 51.87     492.92
 51.97     558.00
 52.07     591.00
 52.17     571.00
 52.27     572.00
 52.37     564.00
 52.47     526.20
 52.57     557.00
 52.67     519.00
 52.77     588.64
 52.87     611.56
 52.97     694.00
 53.07     823.00
 53.17     895.00
 53.27    1041.59
 53.37    1160.50
 53.47    1224.88
 53.57    1176.00
 53.67    1178.46
 53.77     979.00
 53.87     926.30
 53.97     746.00
 54.07     716.60
 54.17     659.00
 54.27     596.00
 54.37     545.82
 54.47     523.44
 54.57     536.20
 54.67     569.00
 54.77     530.00
 54.87     563.00
 54.97     584.00
 55.07     540.75
 55.17     571.00
 55.27     584.00
 55.37     520.61
 55.47     604.00
 55.57     582.00
 55.67     605.05
 55.77     611.00
 55.87     561.11
 55.97     591.75
 56.07     648.00
 56.17     748.00
 56.27     865.00
 56.37    1090.00
 56.47    1349.00
 56.57    1768.61
 56.67    2264.78
 56.77    2481.00
 56.87    2651.00
 56.97    2537.06
 57.07    2399.00
 57.17    2041.00
 57.27    1563.73
 57.37    1320.00
 57.47    1019.00
 57.57     879.00
 57.67     746.00
 57.77     729.00
 57.87     668.00
 57.97     655.00
 58.07     703.71
 58.17     735.00
 58.27     746.00
 58.37     857.00
 58.47     987.00
 58.57    1045.97
 58.67    1167.00
 58.77    1393.51
 58.87    1487.80
 58.97    1557.95
 59.07    1527.00
 59.17    1506.00
 59.27    1453.00
 59.37    1381.00
 59.47    1289.88
 59.57    1220.00
 59.67    1176.92
 59.77    1156.23
 59.87    1296.00
 59.97    1359.00
 60.07    1407.00
 60.17    1561.00
 60.27    1594.25
 60.37    1441.69
 60.47    1364.17
 60.57    1275.00
 60.67    1194.00
 60.77     864.24
 60.87     808.00
 60.97     724.00
 61.07     668.00
 61.17     622.00
 61.27     593.48
 61.37     662.00
 61.47     679.00
 61.57     767.00
 61.67     825.00
 61.77     973.48
 61.87    1093.97
 61.97    1225.00
 62.07    1414.00
 62.17    1380.00
 62.27    1362.00
 62.37    1203.00
 62.47    1176.00
 62.57    1034.00
 62.67     896.35
 62.77     828.12
 62.87     722.00
 62.97     625.00
 63.07     594.00
 63.17     602.26
 63.27     555.07
 63.37     557.89
 63.47     523.47
 63.57     570.52
 63.67     602.73
 63.77     641.00
 63.87     654.00
 63.97     643.00
 64.07     726.00
 64.17     748.04
 64.27     799.30
 64.37     903.00
 64.47     965.00
 64.57     949.12
 64.67     978.00
 64.77    1047.65
 64.87    1010.00
 64.97     936.00
 65.07     850.00
 65.17     828.10
 65.27     703.56
 65.37     678.00
 65.47     659.35
 65.57     654.00
 65.67     564.00
 65.77     556.00
 65.87     569.00
 65.97     533.00
 66.07     581.00
 66.17     554.00
 66.27     597.82
 66.37     573.12
 66.47     535.46
 66.57     590.66
 66.67     575.01
 66.77     573.20
 66.87     547.00
 66.97     572.00
 67.07     613.00
 67.17     663.00
 67.27     732.00
 67.37     896.18
 67.47    1117.99
 67.57    1345.00
 67.67    1561.12
 67.77    1742.00
 67.87    2050.00
 67.97    2303.32
 68.07    2464.00
 68.17    2517.00
 68.27    2256.26
 68.37    2122.00
 68.47    1874.00
 68.57    1567.00
 68.67    1233.00
 68.77    1008.00
 68.87     860.00
 68.97     751.65
 69.07     712.00
 69.17     674.00
 69.27     626.00
 69.37     594.00
 69.47     583.09
 69.57     554.79
 69.67     584.34
 69.77     617.00
 69.87     576.00
 69.97     587.28
 70.07     547.93
 70.17     559.00
 70.27     558.00
 70.37     530.00
 70.47     566.00
 70.57     586.00
 70.67     540.22
 70.77     566.49
 70.87     608.00
 70.97     608.00
 71.07     660.02
 71.17     734.00
 71.27     816.00
 71.37     916.99
 71.47    1122.00
 71.57    1255.00
 71.67    1413.00
 71.77    1705.06
 71.87    1857.78
 71.97    1927.73
 72.07    1959.00
 72.17    1835.03
 72.27    1733.97
 72.37    1710.00
 72.47    1503.00
 72.57    1370.00
 72.67    1199.58
 72.77    1047.00
 72.87    1013.34
 72.97     911.99
 73.07     789.00
 73.17     779.00
 73.27     752.30
 73.37     666.00
 73.47     649.39
 73.57     594.00
 73.67     626.00
 73.77     645.75
 73.87     605.00
 73.97     591.00
 74.07     590.26
 74.17     546.29
 74.27     565.00
 74.37     605.00
 74.47     662.00
 74.57     582.01
 74.67     626.00
 74.77     574.99
 74.87     605.00
 74.97     632.00
 75.07     561.00
 75.17     567.00
 75.27     528.72
 75.37     540.84
 75.47     544.01
 75.57     528.33
 75.67     594.66
 75.77     563.00
 75.87     572.00
 75.97     553.00
 76.07     645.00
 76.17     643.00
 76.27     651.00
 76.37     739.42
 76.47     728.00
 76.57     674.00
 76.67     693.00
 76.77     711.11
 76.87     620.00
 76.97     673.39
 77.07     632.00
 77.17     599.15
 77.27     590.00
 77.37     587.00
 77.47     538.00
 77.57     502.00
 77.67     557.25
 77.77     499.00
 77.87     507.00
 77.97     464.00
 78.07     511.00
 78.17     537.00
 78.27     542.67
 78.37     561.89
 78.47     512.12
 78.57     557.00
 78.67     523.00
 78.77     516.40
 78.87     483.00
 78.97     521.00
 79.07     494.89
 79.17     534.06
 79.27     555.00
 79.37     496.00
 79.47     540.57
 79.57     516.00
 79.67     511.00
 79.77     536.00
 79.87     529.00
 79.97     538.00
 80.07     514.99
 80.17     526.00
 80.27     598.30
 80.37     604.44
 80.47     624.97
 80.57     623.28
 80.67     608.00
 80.77     653.71
 80.87     648.08
 80.97     697.39
 81.07     754.17
 81.17     732.00
 81.27     742.00
 81.37     787.00
 81.47     789.42
 81.57     736.00
 81.67     725.41
 81.77     771.00
 81.87     735.00
 81.97     716.61
 82.07     656.00
 82.17     679.70
 82.27     698.00
 82.37     663.20
 82.47     611.78
 82.57     632.97
 82.67     611.67
 82.77     601.15
 82.87     576.99
 82.97     555.40
 83.07     564.13
 83.17     559.00
 83.27     554.00
 83.37     566.59
 83.47     546.00
 83.57     515.00
 83.67     593.97
 83.77     553.00
 83.87     589.00
 83.97     547.00
 84.07     554.00
 84.17     562.00
 84.27     590.87
 84.37     581.82
 84.47     558.00
 84.57     559.49
 84.67     567.00
 84.77     535.00
 84.87     573.33
 84.97     548.00
 85.07     529.00
 85.17     525.00
 85.27     525.02
 85.37     500.00
 85.47     546.00
 85.57     564.35
 85.67     543.00
 85.77     523.00
 85.87     533.25
 85.97     545.00
 86.07     554.00
 86.17     541.00
 86.27     553.00
 86.37     553.00
 86.47     561.00
 86.57     532.19
 86.67     568.00
 86.77     560.16
 86.87     618.46
 86.97     560.29
 87.07     614.00
 87.17     652.00
 87.27     633.00
 87.37     611.68
 87.47     669.00
 87.57     643.00
 87.67     663.00
 87.77     659.00
 87.87     622.00
 87.97     578.00
 88.07     598.00
 88.17     595.00
 88.27     630.00
 88.37     587.00
 88.47     566.36
 88.57     562.01
 88.67     584.88
 88.77     616.00
 88.87     602.00
 88.97     622.60
 89.07     608.49
 89.17     630.08
 89.27     623.14
 89.37     622.00
 89.47     579.00
 89.57     576.00
 89.67     620.00
 89.77     605.00
 89.87     604.85
 89.97     531.00
 90.07     543.39
 90.17     536.00
 90.27     552.49
 90.37     550.00
 90.47     551.00
 90.57     555.45
 90.67     546.00
 90.77     536.00
 90.87     515.88
 90.97     511.72
 91.07     490.00
 91.17     517.08
 91.27     538.00
 91.37     528.00
 91.47     532.00
 91.57     534.33
 91.67     503.00
 91.77     516.02
 91.87     549.00
 91.97     508.00
 92.07     542.00
 92.17     537.99
 92.27     629.29
 92.37     591.56
 92.47     612.00
 92.57     648.00
 92.67     641.00
 92.77     684.00
 92.87     728.68
 92.97     692.00
 93.07     731.00
 93.17     734.81
 93.27     728.63
 93.37     827.00
 93.47     833.00
 93.57     781.09
 93.67     861.00
 93.77     858.71
 93.87     858.20
 93.97     826.00
 94.07     860.00
 94.17     882.00
 94.27     902.86
 94.37     844.34
 94.47     829.40
 94.57     829.45
 94.67     975.00
 94.77     854.24
 94.87     940.04
 94.97     925.00
 95.07     861.82
 95.17     890.65
 95.27     845.00
 95.37     774.00
 95.47     795.00
 95.57     721.76
 95.67     765.00
 95.77     709.00
 95.87     711.71
 95.97     669.32
 96.07     667.25
 96.17     710.00
 96.27     734.00
 96.37     720.00
 96.47     800.00
 96.57     887.61
 96.67     886.00
 96.77     977.00
 96.87    1043.64
 96.97    1114.00
 97.07    1152.00
 97.17    1348.82
 97.27    1398.66
 97.37    1473.00
 97.47    1387.00
 97.57    1416.00
 97.67    1367.48
 97.77    1383.00
 97.87    1383.86
 97.97    1281.00
 98.07    1181.00
 98.17    1200.00
 98.27    1128.00
 98.37     957.04
 98.47     911.00
 98.57     928.60
 98.67     827.00
 98.77     838.00
 98.87     863.43
 98.97     767.50
 99.07     831.04
 99.17     794.69
 99.27     842.00
 99.37     952.28
 99.47    1014.00
 99.57    1132.00
 99.67    1089.00
 99.77    1241.44
 99.87    1392.30
 99.97    1546.00
100.07    1662.19
100.17    1742.00
100.27    1818.02
100.37    1875.71
100.47    1932.25
100.57    2061.00
100.67    2132.00
100.77    2157.50
100.87    2121.00
100.97    2021.00
101.07    1965.00
101.17    1862.00
101.27    1803.00
101.37    1695.00
101.47    1617.00
101.57    1502.00
101.67    1421.00
101.77    1344.00
101.87    1297.26
101.97    1267.00
102.07    1256.00
102.17    1222.00
102.27    1138.28
102.37    1093.00
102.47    1005.00
102.57    1097.04
102.67    1104.29
102.77    1069.00
102.87     995.00
102.97     900.00
103.07     922.00
103.17     893.00
103.27     833.00
103.37     846.00
103.47     784.00
103.57     690.79
103.67     670.00
103.77     637.81
103.87     654.00
103.97     597.00
104.07     654.00
104.17     605.00
104.27     501.00
104.37     557.00
104.47     548.44
104.57     538.00
104.67     551.00
104.77     525.00
104.87     549.30
104.97     554.00
105.07     562.00
105.17     512.12
105.27     522.00
105.37     517.00
105.47     556.00
105.57     583.00
105.67     579.60
105.77     600.00
105.87     547.00
105.97     578.00
106.07     606.00
106.17     572.01
106.27     606.80
106.37     628.00
106.47     630.00
106.57     588.00
106.67     635.00
106.77     634.00
106.87     634.79
106.97     634.44
107.07     650.00
107.17     652.00
107.27     657.06
107.37     698.00
107.47     674.00
107.57     656.76
107.67     617.00
107.77     662.00
107.87     713.00
107.97     711.00
108.07     682.00
108.17     653.00
108.27     682.00
108.37     711.00
108.47     703.00
108.57     679.00
108.67     696.12
108.77     669.00
108.87     708.77
108.97     708.82
109.07     679.00
109.17     623.00
109.27     637.31
109.37     628.13
109.47     619.89
109.57     652.65
109.67     613.00
109.77     653.00
109.87     648.00
109.97     594.00
110.07     585.00
110.17     602.00
110.27     592.88
110.37     542.00
110.47     593.00
110.57     541.52
110.67     499.61
110.77     559.00
110.87     556.00
110.97     512.49
111.07     547.00
111.17     548.00
111.27     498.08
111.37     568.89
111.47     588.00
111.57     546.00
111.67     553.62
111.77     535.34
111.87     553.00
111.97     598.54
112.07     594.56
112.17     568.00
112.27     532.00
112.37     607.00
112.47     606.82
112.57     615.49
112.67     620.00
112.77     619.00
112.87     701.00
112.97     649.13
113.07     660.00
113.17     661.29
113.27     713.38
113.37     775.00
113.47     726.00
113.57     843.11
113.67     792.87
113.77     864.15
113.87     871.00
113.97     912.30
114.07    1041.18
114.17    1064.00
114.27    1096.00
114.37    1168.00
114.47    1256.77
114.57    1402.87
114.67    1514.91
114.77    1755.84
114.87    1947.00
114.97    2130.00
115.07    2322.00
115.17    2588.64
115.27    2873.80
115.37    3087.00
115.47    3353.00
115.57    3827.47
115.67    4022.00
115.77    4616.11
115.87    4711.00
115.97    5233.00
116.07    5717.00
116.17    5899.00
116.27    6230.00
116.37    6784.00
116.47    6740.00
116.57    6876.00
116.67    7014.00
116.77    6862.00
116.87    6842.00
116.97    6707.22
117.07    6466.12
117.17    5973.00
117.27    5710.65
117.37    5187.00
117.47    5083.82
117.57    4559.00
117.67    4249.00
117.77    3753.65
117.87    3621.00
117.97    3145.27
118.07    2905.76
118.17    2615.00
118.27    2250.95
118.37    1998.00
118.47    1815.99
118.57    1649.00
118.67    1382.00
118.77    1215.00
118.87    1116.00
118.97    1014.83
119.07     921.00
119.17     851.79
119.27     783.39
119.37     817.20
119.47     700.25
119.57     673.00
119.67     719.11
119.77     711.00
119.87     653.00
119.97     592.00
120.07     610.42
120.17     615.00
120.27     610.40
120.37     609.00
120.47     619.87
120.57     539.00
120.67     544.00
120.77     604.00
120.87     581.77
120.97     579.00
121.07     599.38
121.17     606.12
121.27     555.00
121.37     591.86
121.47     590.00
121.57     551.00
121.67     609.00
121.77     621.16
121.87     609.00
121.97     611.00
122.07     619.00
122.17     624.00
122.27     618.00
122.37     559.00
122.47     614.76
122.57     637.00
122.67     664.39
122.77     669.15
122.87     632.00
122.97     665.64
123.07     634.00
123.17     635.34
123.27     662.00
123.37     660.07
123.47     660.00
123.57     635.00
123.67     670.00
123.77     647.40
123.87     660.00
123.97     626.00
124.07     659.00
124.17     648.12
124.27     624.00
124.37     555.72
124.47     562.00
124.57     603.00
124.67     580.00
124.77     614.43
124.87     550.00
124.97     570.00
