  9.97     711.00
 10.07     814.00
 10.17     713.00
 10.27     782.00
 10.37     767.00
 10.47     724.00
 10.57     752.00
 10.67     817.00
 10.77     766.00
 10.87     747.50
 10.97     729.31
 11.07     780.64
 11.17     767.00
 11.27     784.00
 11.37     765.00
 11.47     741.57
 11.57     751.35
 11.67     768.98
 11.77     754.77
 11.87     801.00
 11.97     831.00
 12.07     851.00
 12.17     900.00
 12.27     841.78
 12.37     837.22
 12.47     878.00
 12.57     822.00
 12.67     774.00
 12.77     731.77
 12.87     689.00
 12.97     720.00
 13.07     696.00
 13.17     759.00
 13.27     717.00
 13.37     688.00
 13.47     661.00
 13.57     753.35
 13.67     682.86
 13.77     714.00
 13.87     677.82
 13.97     756.23
 14.07     761.39
 14.17     754.00
 14.27     719.10
 14.37     691.00
 14.47     686.00
 14.57     730.00
 14.67     713.05
 14.77     688.00
 14.87     672.00
 14.97     721.00
 15.07     683.00
 15.17     689.00
 15.27     721.34
 15.37     692.00
 15.47     731.40
 15.57     682.00
 15.67     676.00
 15.77     681.00
 15.87     644.00
 15.97     716.00
 16.07     705.19
 16.17     692.00
 16.27     694.00
 16.37     668.00
 16.47     639.96
 16.57     675.79
 16.67     654.89
 16.77     678.00
 16.87     657.00
 16.97     693.00
 17.07     637.17
 17.17     703.31
 17.27     670.00
 17.37     720.00
 17.47     690.99
 17.57     729.03
 17.67     699.00
 17.77     701.00
 17.87     673.61
 17.97     704.16
 18.07     690.00
 18.17     690.09
 18.27     691.00
 18.37     675.00
 18.47     700.00
 18.57     643.29
 18.67     736.00
 18.77     648.00
 18.87     721.49
 18.97     661.11
 19.07     650.93
 19.17     694.03
 19.27     683.26
 19.37     673.00
 19.47     699.54
 19.57     724.49
 19.67     631.00
 19.77     630.00
 19.87     663.00
 19.97     721.77
 20.07     663.00
 20.17     623.30
 20.27     657.00
 20.37     709.78
 20.47     667.00
 20.57     650.28
 20.67     636.20
 20.77     709.96
 20.87     660.00
 20.97     625.00
 21.07     653.00
 21.17     620.00
 21.27     662.00
 21.37     634.00
 21.47     656.29
 21.57     626.00
 21.67     632.40
 21.77     655.00
 21.87     618.00
 21.97     676.43
 22.07     686.00
 22.17     634.00
 22.27     634.00
 22.37     674.00
 22.47     641.00
 22.57     694.00
 22.67     638.27
 22.77     691.81
 22.87     638.00
 22.97     660.00
 23.07     643.00
 23.17     682.00
 23.27     685.31
 23.37     613.00
 23.47     618.00
 23.57     641.00
 23.67     698.00
 23.77     688.00
 23.87     657.36
 23.97     633.00
 24.07     678.30
 24.17     635.00
 24.27     696.99
 24.37     683.17
 24.47     695.00
 24.57     714.00
 24.67     697.47
 24.77     676.00
 24.87     695.93
 24.97     760.45
 25.07     771.46
 25.17     779.00
 25.27     673.00
 25.37     721.69
 25.47     700.65
 25.57     731.76
 25.67     678.00
 25.77     719.00
 25.87     683.00
 25.97     668.00
 26.07     701.00
 26.17     700.32
 26.27     680.00
 26.37     656.00
 26.47     663.00
 26.57     660.30
 26.67     720.00
 26.77     687.00
 26.87     697.00
 26.97     683.20
 27.07     746.62
 27.17     728.00
 27.27     729.00
 27.37     732.00
 27.47     824.00
 27.57     819.00
 27.67     839.80
 27.77     935.00
 27.87    1089.00
 27.97    1457.72
 28.07    2082.00
 28.17    3479.64
 28.27    5777.16
 28.37    7805.00
 28.47    9363.00
 28.57    8875.00
 28.67    6822.03
 28.77    5057.89
 28.87    4228.00
 28.97    4171.00
 29.07    4963.00
 29.17    5327.00
 29.27    5038.00
 29.37    3896.37
 29.47    2833.00
 29.57    1904.00
 29.67    1454.53
 29.77    1238.00
 29.87     996.00
 29.97     930.00
 30.07     904.00
 30.17     834.00
 30.27     737.29
 30.37     749.00
 30.47     785.00
 30.57     769.01
 30.67     703.00
 30.77     779.00
 30.87     775.00
 30.97     758.00
 31.07     828.00
 31.17     813.00
 31.27     797.90
 31.37     742.00
 31.47     774.00
 31.57     754.00
 31.67     644.56
 31.77     736.00
 31.87     723.24
 31.97     640.08
 32.07     673.26
 32.17     657.00
 32.27     651.00
 32.37     641.64
 32.47     698.00
 32.57     687.00
 32.67     612.88
 32.77     653.92
 32.87     600.49
 32.97     661.00
 33.07     691.00
 33.17     720.00
 33.27     652.68
 33.37     707.08
 33.47     686.00
 33.57     701.04
 33.67     663.76
 33.77     734.00
 33.87     736.00
 33.97     820.28
 34.07    1000.00
 34.17    1161.00
 34.27    1195.00
 34.37    1358.00
 34.47    1278.00
 34.57    1104.43
 34.67     999.19
 34.77     890.44
 34.87     761.00
 34.97     748.75
 35.07     714.01
 35.17     694.00
 35.27     706.00
 35.37     693.00
 35.47     614.25
 35.57     619.00
 35.67     660.10
 35.77     683.00
 35.87     671.00
 35.97     655.00
 36.07     596.75
 36.17     664.33
 36.27     682.92
 36.37     609.79
 36.47     624.00
 36.57     629.00
 36.67     589.41
 36.77     600.00
 36.87     692.00
 36.97     596.00
 37.07     652.34
 37.17     680.83
 37.27     609.00
 37.37     695.00
 37.47     682.63
 37.57     643.00
 37.67     699.00
 37.77     685.27
 37.87     700.09
 37.97     685.00
 38.07     737.00
 38.17     747.84
 38.27     763.00
 38.37     791.90
 38.47     781.00
 38.57     783.00
 38.67     699.00
 38.77     736.85
 38.87     682.00
 38.97     664.00
 39.07     662.00
 39.17     622.01
 39.27     600.02
 39.37     598.00
 39.47     584.15
 39.57     604.00
 39.67     641.00
 39.77     662.00
 39.87     678.00
 39.97     664.53
 40.07     616.00
 40.17     618.00
 40.27     580.81
 40.37     670.00
 40.47     660.00
 40.57     622.00
 40.67     651.41
 40.77     647.44
 40.87     670.00
 40.97     676.67
 41.07     674.42
 41.17     650.00
 41.27     617.54
 41.37     619.00
 41.47     636.25
 41.57     585.00
 41.67     590.12
 41.77     647.85
 41.87     667.00
 41.97     640.40
 42.07     634.38
 42.17     627.21
 42.27     639.00
 42.37     634.00
 42.47     620.00
 42.57     633.00
 42.67     656.00
 42.77     674.00
 42.87     696.38
 42.97     696.00
 43.07     707.42
 43.17     771.85
 43.27     718.10
 43.37     714.92
 43.47     723.27
 43.57     585.00
 43.67     665.00
 43.77     619.00
 43.87     624.00
 43.97     641.00
 44.07     673.00
 44.17     613.00
 44.27     657.00
 44.37     629.00
 44.47     663.58
 44.57     638.59
 44.67     654.00
 44.77     687.00
 44.87     687.00
 44.97     626.00
 45.07     656.78
 45.17     628.51
 45.27     592.00
 45.37     669.44
 45.47     670.00
 45.57     642.00
 45.67     622.31
 45.77     645.00
 45.87     671.00
 45.97     661.88
 46.07     637.00
 46.17     592.19
 46.27     633.15
 46.37     653.00
 46.47     679.00
 46.57     669.09
 46.67     626.00
 46.77     592.00
 46.87     594.93
 46.97     594.50
 47.07     641.00
 47.17     686.26
 47.27     607.36
 47.37     629.94
 47.47     627.00
 47.57     629.00
 47.67     694.00
 47.77     626.43
 47.87     683.00
 47.97     702.00
 48.07     722.38
 48.17     693.33
 48.27     724.00
 48.37     708.00
 48.47     692.00
 48.57     759.00
 48.67     696.00
 48.77     713.00
 48.87     665.00
 48.97     649.00
 49.07     661.00
 49.17     703.00
 49.27     718.01
 49.37     671.00
 49.47     719.78
 49.57     696.00
 49.67     701.73
 49.77     746.10
 49.87     859.27
 49.97    1007.04
 50.07    1202.08
 50.17    1460.00
 50.27    1906.00
 50.37    2407.00
 50.47    2913.00
 50.57    3212.00
 50.67    3293.00
 50.77    3114.00
 50.87    2698.00
 50.97    2068.00
 51.07    1565.49
 51.17    1277.00
 51.27    1085.00
 51.37     931.00
 51.47     836.00
 51.57     746.30
 51.67     775.00
 51.77     779.45
 51.87     793.00
 51.97     761.00
 52.07     780.00
 52.17     767.55
 52.27     766.91
 52.37     682.34
 52.47     744.00
 52.57     704.00
 52.67     670.30
 52.77     679.22
 52.87     687.00
 52.97     713.00
 53.07     687.84
 53.17     724.03
 53.27     774.00
 53.37     817.63
 53.47     820.00
 53.57     974.67
 53.67    1061.02
 53.77    1200.64
 53.87    1192.00
 53.97    1289.00
 54.07    1385.00
 54.17    1296.00
 54.27    1143.00
 54.37    1173.00
 54.47    1041.72
 54.57     929.00
 54.67     843.00
 54.77     776.00
 54.87     736.00
 54.97     724.00
 55.07     726.00
 55.17     755.00
 55.27     680.00
 55.37     681.00
 55.47     723.28
 55.57     740.00
 55.67     702.97
 55.77     746.00
 55.87     706.00
 55.97     706.00
 56.07     736.00
 56.17     757.00
 56.27     773.00
 56.37     761.00
 56.47     812.00
 56.57     921.00
 56.67    1024.31
 56.77    1123.00
 56.87    1393.00
 56.97    1792.93
 57.07    2032.00
 57.17    2390.00
 57.27    2617.42
 57.37    2790.00
 57.47    2603.00
 57.57    2537.00
 57.67    2239.00
 57.77    1803.05
 57.87    1495.00
 57.97    1334.00
 58.07    1142.55
 58.17     945.84
 58.27     901.00
 58.37     901.19
 58.47     825.00
 58.57     850.00
 58.67     861.00
 58.77     901.00
 58.87     975.00
 58.97    1091.81
 59.07    1113.00
 59.17    1242.00
 59.27    1269.00
 59.37    1326.00
 59.47    1412.00
 59.57    1380.00
 59.67    1400.90
 59.77    1404.91
 59.87    1358.32
 59.97    1376.00
 60.07    1241.00
 60.17    1289.00
 60.27    1334.00
 60.37    1424.00
 60.47    1489.03
 60.57    1504.48
 60.67    1709.00
 60.77    1669.00
 60.87    1675.00
 60.97    1522.00
 61.07    1442.00
 61.17    1237.69
 61.27    1111.22
 61.37    1003.25
 61.47     886.00
 61.57     907.00
 61.67     891.36
 61.77     813.00
 61.87     901.79
 61.97     938.00
 62.07    1015.00
 62.17    1167.00
 62.27    1294.00
 62.37    1442.00
 62.47    1716.05
 62.57    1818.00
 62.67    1910.04
 62.77    1925.21
 62.87    1881.34
 62.97    1724.00
 63.07    1535.00
 63.17    1328.00
 63.27    1169.00
 63.37    1124.82
 63.47    1008.09
 63.57     901.00
 63.67     787.24
 63.77     827.42
 63.87     791.00
 63.97     715.00
 64.07     812.00
 64.17     825.26
 64.27     838.32
 64.37     824.77
 64.47     848.82
 64.57     925.00
 64.67    1004.00
 64.77    1163.00
 64.87    1206.00
 64.97    1403.29
 65.07    1464.00
 65.17    1637.22
 65.27    1612.93
 65.37    1625.14
 65.47    1658.08
 65.57    1630.00
 65.67    1440.72
 65.77    1346.00
 65.87    1244.01
 65.97    1115.48
 66.07     937.00
 66.17     931.00
 66.27     858.00
 66.37     794.99
 66.47     855.17
 66.57     725.79
 66.67     709.87
 66.77     728.00
 66.87     683.00
 66.97     690.21
 67.07     727.00
 67.17     738.18
 67.27     754.00
 67.37     817.28
 67.47     776.00
 67.57     795.00
 67.67     803.00
 67.77     840.00
 67.87    1043.51
 67.97    1177.97
 68.07    1206.00
 68.17    1465.42
 68.27    1601.00
 68.37    1962.00
 68.47    2136.21
 68.57    2514.75
 68.67    2574.00
 68.77    2489.53
 68.87    2455.27
 68.97    2479.00
 69.07    2151.00
 69.17    1922.00
 69.27    1639.00
 69.37    1319.00
 69.47    1263.19
 69.57    1135.00
 69.67     972.07
 69.77     968.00
 69.87     927.00
 69.97     843.00
 70.07     808.00
 70.17     765.00
 70.27     771.00
 70.37     732.00
 70.47     709.00
 70.57     695.58
 70.67     729.99
 70.77     734.00
 70.87     683.00
 70.97     754.00
 71.07     710.00
 71.17     739.00
 71.27     776.47
 71.37     759.00
 71.47     786.00
 71.57     791.51
 71.67     830.09
 71.77     944.00
 71.87    1006.00
 71.97    1016.53
 72.07    1193.00
 72.17    1386.93
 72.27    1538.00
 72.37    1644.87
 72.47    1854.00
 72.57    1976.00
 72.67    2051.00
 72.77    2026.00
 72.87    1948.00
 72.97    1932.40
 73.07    1749.00
 73.17    1587.00
 73.27    1385.00
 73.37    1271.00
 73.47    1112.00
 73.57    1010.00
 73.67     903.00
 73.77     836.00
 73.87     856.95
 73.97     764.00
 74.07     759.00
 74.17     746.57
 74.27     715.00
 74.37     717.00
 74.47     670.94
 74.57     756.00
 74.67     706.92
 74.77     757.00
 74.87     722.00
 74.97     744.49
 75.07     760.00
 75.17     733.00
 75.27     738.00
 75.37     744.23
 75.47     768.00
 75.57     699.00
 75.67     695.99
 75.77     721.00
 75.87     726.74
 75.97     770.00
 76.07     775.00
 76.17     707.08
 76.27     726.00
 76.37     785.00
 76.47     766.00
 76.57     840.00
 76.67     836.31
 76.77     845.00
 76.87     943.00
 76.97     979.00
 77.07     973.31
 77.17    1078.21
 77.27    1115.00
 77.37    1097.24
 77.47    1077.06
 77.57    1038.55
 77.67    1025.00
 77.77     993.00
 77.87     885.03
 77.97     876.00
 78.07     813.00
 78.17     839.00
 78.27     743.00
 78.37     718.57
 78.47     718.00
 78.57     666.00
 78.67     706.44
 78.77     675.81
 78.87     693.43
 78.97     678.00
 79.07     705.00
 79.17     692.10
 79.27     657.30
 79.37     634.00
 79.47     640.51
 79.57     622.00
 79.67     685.00
 79.77     668.00
 79.87     662.00
 79.97     654.00
 80.07     643.00
 80.17     656.00
 80.27     694.90
 80.37     665.00
 80.47     702.00
 80.57     751.00
 80.67     756.00
 80.77     826.00
 80.87     866.00
 80.97     867.04
 81.07     924.28
 81.17    1073.18
 81.27    1130.18
 81.37    1295.88
 81.47    1445.00
 81.57    1472.00
 81.67    1549.00
 81.77    1436.71
 81.87    1670.00
 81.97    1592.64
 82.07    1556.70
 82.17    1570.00
 82.27    1449.08
 82.37    1258.89
 82.47    1229.42
 82.57    1206.53
 82.67    1086.00
 82.77    1031.29
 82.87     951.00
 82.97     893.00
 83.07     832.00
 83.17     891.75
 83.27     832.86
 83.37     798.88
 83.47     697.00
 83.57     761.40
 83.67     681.00
 83.77     697.36
 83.87     682.65
 83.97     683.00
 84.07     619.00
 84.17     744.50
 84.27     671.00
 84.37     719.00
 84.47     692.00
 84.57     730.00
 84.67     666.00
 84.77     688.00
 84.87     676.00
 84.97     783.00
 85.07     705.66
 85.17     660.00
 85.27     662.00
 85.37     649.44
 85.47     649.88
 85.57     665.00
 85.67     642.15
 85.77     646.00
 85.87     653.00
 85.97     666.21
 86.07     672.70
 86.17     632.00
 86.27     690.13
 86.37     609.50
 86.47     689.00
 86.57     680.00
 86.67     676.00
 86.77     725.31
 86.87     702.26
 86.97     715.00
 87.07     717.84
 87.17     689.00
 87.27     754.97
 87.37     738.00
 87.47     728.85
 87.57     729.76
 87.67     668.19
 87.77     795.00
 87.87     743.00
 87.97     738.81
 88.07     765.00
 88.17     712.35
 88.27     783.00
 88.37     762.00
 88.47     718.85
 88.57     741.00
 88.67     798.00
 88.77     753.00
 88.87     720.00
 88.97     735.00
 89.07     693.00
 89.17     692.00
 89.27     723.76
 89.37     643.00
 89.47     683.27
 89.57     703.83
 89.67     754.00
 89.77     702.00
 89.87     692.64
 89.97     764.00
 90.07     725.00
 90.17     732.00
 90.27     748.00
 90.37     710.00
 90.47     708.00
 90.57     712.00
 90.67     697.51
 90.77     667.00
 90.87     717.00
 90.97     634.00
 91.07     612.67
 91.17     667.00
 91.27     663.00
 91.37     681.16
 91.47     617.00
 91.57     620.00
 91.67     631.00
 91.77     628.00
 91.87     637.68
 91.97     605.26
 92.07     638.00
 92.17     613.00
 92.27     623.00
 92.37     634.06
 92.47     616.00
 92.57     627.00
 92.67     675.00
 92.77     646.79
 92.87     686.00
 92.97     686.00
 93.07     654.42
 93.17     703.00
 93.27     669.00
 93.37     693.00
 93.47     696.00
 93.57     708.00
 93.67     770.00
 93.77     822.00
 93.87     848.00
 93.97     851.00
 94.07     812.00
 94.17     835.00
 94.27     935.74
 94.37     833.93
 94.47     921.12
 94.57     922.00
 94.67     914.45
 94.77     948.00
 94.87     926.95
 94.97    1000.96
 95.07     986.44
 95.17    1007.00
 95.27    1011.00
 95.37    1052.88
 95.47    1066.00
 95.57    1041.19
 95.67    1110.68
 95.77    1091.13
 95.87    1068.00
 95.97    1047.00
 96.07    1030.00
 96.17    1059.00
 96.27     959.00
 96.37     977.00
 96.47     973.00
 96.57     955.49
 96.67     885.00
 96.77     866.00
 96.87     820.00
 96.97     874.00
 97.07     814.05
 97.17     902.00
 97.27     843.88
 97.37     885.96
 97.47     911.70
 97.57    1031.00
 97.67    1098.00
 97.77    1162.02
 97.87    1144.00
 97.97    1263.19
 98.07    1326.61
 98.17    1481.00
 98.27    1479.84
 98.37    1514.00
 98.47    1598.00
 98.57    1658.00
 98.67    1603.17
 98.77    1526.00
 98.87    1614.00
 98.97    1476.00
 99.07    1473.00
 99.17    1379.00
 99.27    1403.08
 99.37    1352.00
 99.47    1233.00
 99.57    1143.45
 99.67    1175.61
 99.77    1053.74
 99.87    1018.00
 99.97    1073.00
100.07    1031.57
100.17    1111.74
100.27    1111.00
100.37    1114.33
100.47    1163.00
100.57    1192.00
100.67    1292.00
100.77    1444.00
100.87    1525.65
100.97    1621.79
101.07    1648.00
101.17    1837.00
101.27    1852.00
101.37    1888.46
101.47    1962.00
101.57    2144.00
101.67    2070.00
101.77    2202.00
101.87    2134.00
101.97    2106.00
102.07    2127.77
102.17    2139.00
102.27    1999.00
102.37    1996.00
102.47    1959.00
102.57    1813.91
102.67    1788.00
102.77    1740.00
102.87    1654.00
102.97    1611.00
103.07    1654.00
103.17    1472.00
103.27    1434.00
103.37    1451.00
103.47    1413.36
103.57    1406.00
103.67    1363.97
103.77    1331.00
103.87    1283.48
103.97    1179.00
104.07    1187.00
104.17    1105.00
104.27    1054.00
104.37    1016.11
104.47    1076.55
104.57     983.00
104.67    1003.00
104.77     876.85
104.87     812.63
104.97     782.01
105.07     815.73
105.17     740.00
105.27     742.00
105.37     665.75
105.47     671.00
105.57     636.91
105.67     715.00
105.77     734.00
105.87     636.90
105.97     666.00
106.07     600.69
106.17     643.00
106.27     674.10
106.37     656.00
106.47     669.00
106.57     634.00
106.67     661.00
106.77     671.00
106.87     653.00
106.97     685.00
107.07     696.32
107.17     654.00
107.27     678.02
107.37     643.45
107.47     714.09
107.57     718.25
107.67     714.00
107.77     730.00
107.87     759.00
107.97     805.71
108.07     750.00
108.17     824.00
108.27     834.33
108.37     784.83
108.47     813.84
108.57     828.00
108.67     814.00
108.77     785.00
108.87     775.00
108.97     822.00
109.07     812.00
109.17     860.68
109.27     797.00
109.37     814.58
109.47     815.00
109.57     790.00
109.67     796.00
109.77     858.78
109.87     761.57
109.97     754.78
110.07     829.37
110.17     829.00
110.27     765.00
110.37     802.00
110.47     829.16
110.57     812.00
110.67     768.00
110.77     758.00
110.87     812.00
110.97     788.35
111.07     742.49
111.17     749.00
111.27     775.47
111.37     733.00
111.47     727.88
111.57     713.32
111.67     725.95
111.77     653.00
111.87     670.00
111.97     680.00
112.07     664.51
112.17     655.99
112.27     662.00
112.37     613.68
112.47     673.99
112.57     620.00
112.67     660.00
112.77     636.00
112.87     652.00
112.97     627.00
113.07     636.00
113.17     637.90
113.27     628.88
113.37     635.00
113.47     654.00
113.57     695.57
113.67     650.00
113.77     656.00
113.87     666.00
113.97     665.00
114.07     697.00
114.17     653.00
114.27     652.90
114.37     730.68
114.47     716.00
114.57     709.00
114.67     714.00
114.77     694.00
114.87     771.00
114.97     809.00
115.07     835.49
115.17     889.59
115.27     884.00
115.37     881.00
115.47     995.44
115.57    1123.00
115.67    1244.60
115.77    1254.00
115.87    1385.49
115.97    1602.00
116.07    1833.00
116.17    2007.00
116.27    2208.00
116.37    2581.00
116.47    2759.54
116.57    3017.63
116.67    3329.00
116.77    3706.00
116.87    4083.00
116.97    4472.00
117.07    5005.32
117.17    5233.00
117.27    5697.00
117.37    5991.00
117.47    6371.71
117.57    6837.00
117.67    6948.73
117.77    7211.00
117.87    7541.00
117.97    7687.00
118.07    7498.00
118.17    7717.89
118.27    7556.00
118.37    7515.00
118.47    7070.00
118.57    6951.00
118.67    6571.00
118.77    6207.00
118.87    5915.00
118.97    5645.35
119.07    5220.00
119.17    4963.00
119.27    4624.00
119.37    4167.00
119.47    3679.00
119.57    3506.00
119.67    3131.00
119.77    2832.00
119.87    2573.00
119.97    2295.00
120.07    2131.00
120.17    1945.00
120.27    1820.00
120.37    1610.02
120.47    1541.13
120.57    1502.00
120.67    1312.00
120.77    1234.74
120.87    1094.00
120.97    1123.00
121.07    1018.09
121.17     933.15
121.27     877.80
121.37     866.76
121.47     901.74
121.57     818.00
121.67     813.90
121.77     777.00
121.87     736.00
121.97     734.00
122.07     738.58
122.17     797.00
122.27     728.00
122.37     717.66
122.47     709.68
122.57     788.00
122.67     763.80
122.77     741.00
122.87     759.00
122.97     705.91
123.07     725.00
123.17     734.63
123.27     756.00
123.37     722.02
123.47     775.00
123.57     838.61
123.67     825.78
123.77     791.00
123.87     821.26
123.97     877.00
124.07     775.00
124.17     821.00
124.27     798.00
124.37     863.00
124.47     857.01
124.57     812.00
124.67     856.18
124.77     896.00
124.87     874.00
124.97     817.00
