  9.97     607.00
 10.07     603.31
 10.17     543.91
 10.27     616.00
 10.37     604.00
 10.47     641.00
 10.57     602.00
 10.67     586.00
 10.77     530.91
 10.87     568.92
 10.97     617.22
 11.07     593.72
 11.17     551.28
 11.27     563.04
 11.37     586.00
 11.47     548.00
 11.57     600.00
 11.67     563.61
 11.77     623.00
 11.87     653.00
 11.97     680.00
 12.07     625.03
 12.17     677.00
 12.27     655.00
 12.37     633.08
 12.47     637.00
 12.57     607.00
 12.67     598.19
 12.77     579.00
 12.87     568.00
 12.97     562.71
 13.07     550.00
 13.17     585.51
 13.27     541.00
 13.37     561.00
 13.47     552.00
 13.57     615.00
 13.67     557.59
 13.77     565.00
 13.87     593.39
 13.97     527.00
 14.07     572.00
 14.17     600.00
 14.27     531.00
 14.37     556.00
 14.47     521.00
 14.57     598.71
 14.67     631.00
 14.77     567.00
 14.87     559.00
 14.97     587.33
 15.07     592.00
 15.17     579.00
 15.27     565.00
 15.37     556.03
 15.47     549.00
 15.57     555.00
 15.67     588.00
 15.77     592.08
 15.87     520.00
 15.97     539.50
 16.07     526.00
 16.17     595.81
 16.27     548.82
 16.37     530.00
 16.47     535.97
 16.57     605.58
 16.67     579.54
 16.77     568.00
 16.87     591.00
 16.97     572.00
 17.07     610.54
 17.17     546.00
 17.27     518.14
 17.37     532.00
 17.47     567.54
 17.57     584.69
 17.67     556.00
 17.77     540.00
 17.87     570.00
 17.97     605.98
 18.07     569.00
 18.17     564.00
 18.27     578.00
 18.37     575.00
 18.47     550.00
 18.57     539.88
 18.67     537.26
 18.77     601.19
 18.87     514.87
 18.97     552.00
 19.07     571.00
 19.17     564.00
 19.27     501.00
 19.37     602.00
 19.47     531.31
 19.57     531.25
 19.67     549.00
 19.77     569.00
 19.87     564.46
 19.97     540.96
 20.07     544.00
 20.17     520.42
 20.27     509.83
 20.37     528.00
 20.47     536.00
 20.57     561.25
 20.67     531.00
 20.77     546.00
 20.87     565.00
 20.97     552.00
 21.07     526.00
 21.17     566.68
 21.27     529.00
 21.37     541.72
 21.47     560.00
 21.57     551.34
 21.67     527.00
 21.77     540.18
 21.87     523.00
 21.97     561.00
 22.07     547.00
 22.17     551.00
 22.27     510.92
 22.37     563.00
 22.47     565.00
 22.57     519.00
 22.67     545.77
 22.77     505.89
 22.87     517.46
 22.97     548.00
 23.07     573.00
 23.17     544.80
 23.27     536.53
 23.37     571.00
 23.47     563.00
 23.57     583.27
 23.67     532.00
 23.77     575.00
 23.87     520.00
 23.97     569.70
 24.07     577.00
 24.17     543.19
 24.27     613.00
 24.37     600.00
 24.47     582.83
 24.57     630.69
 24.67     617.94
 24.77     641.00
 24.87     621.00
 24.97     598.80
 25.07     555.00
 25.17     529.53
 25.27     585.84
 25.37     548.00
 25.47     569.00
 25.57     521.00
 25.67     552.00
 25.77     556.91
 25.87     567.90
 25.97     586.84
 26.07     568.00
 26.17     591.00
 26.27     512.00
 26.37     516.53
 26.47     535.00
 26.57     534.00
 26.67     549.00
 26.77     528.87
 26.87     526.03
 26.97     529.08
 27.07     571.00
 27.17     586.54
 27.27     578.00
 27.37     563.00
 27.47     556.00
 27.57     559.29
 27.67     562.41
 27.77     601.00
 27.87     585.00
 27.97     731.00
 28.07     816.00
 28.17     889.00
 28.27    1000.00
 28.37     858.48
 28.47     805.75
 28.57     723.56
 28.67     645.00
 28.77     746.00
 28.87     797.00
 28.97     827.00
 29.07     721.00
 29.17     708.00
 29.27     636.00
 29.37     584.41
 29.47     574.00
 29.57     593.00
 29.67     567.00
 29.77     580.95
 29.87     640.00
 29.97     556.00
 30.07     568.00
 30.17     540.13
 30.27     499.74
 30.37     552.00
 30.47     561.33
 30.57     533.00
 30.67     554.35
 30.77     567.00
 30.87     628.00
 30.97     637.00
 31.07     638.65
 31.17     585.50
 31.27     592.00
 31.37     556.00
 31.47     488.00
 31.57     510.00
 31.67     505.80
 31.77     550.00
 31.87     547.00
 31.97     566.44
 32.07     517.02
 32.17     547.00
 32.27     566.97
 32.37     554.00
 32.47     559.00
 32.57     560.24
 32.67     572.00
 32.77     504.00
 32.87     512.42
 32.97     507.00
 33.07     548.00
 33.17     522.00
 33.27     547.00
 33.37     524.52
 33.47     517.24
 33.57     599.00
 33.67     673.00
 33.77     714.96
 33.87     895.00
 33.97    1023.58
 34.07    1012.00
 34.17    1010.00
 34.27     906.00
 34.37     803.73
 34.47     615.00
 34.57     569.00
 34.67     587.51
 34.77     567.00
 34.87     564.71
 34.97     485.00
 35.07     522.00
 35.17     495.93
 35.27     471.00
 35.37     523.00
 35.47     502.00
 35.57     478.67
 35.67     487.33
 35.77     523.00
 35.87     555.00
 35.97     513.00
 36.07     524.00
 36.17     491.00
 36.27     526.00
 36.37     537.97
 36.47     515.00
 36.57     510.00
 36.67     534.40
 36.77     530.00
 36.87     496.00
 36.97     523.65
 37.07     515.00
 37.17     527.00
 37.27     520.00
 37.37     540.79
 37.47     530.00
 37.57     487.30
 37.67     549.00
 37.77     531.90
 37.87     491.00
 37.97     536.00
 38.07     521.00
 38.17     508.00
 38.27     517.00
 38.37     510.48
 38.47     529.00
 38.57     480.00
 38.67     493.00
 38.77     548.31
 38.87     543.00
 38.97     480.00
 39.07     540.00
 39.17     491.00
 39.27     509.06
 39.37     543.00
 39.47     458.00
 39.57     509.00
 39.67     503.00
 39.77     531.00
 39.87     526.00
 39.97     510.08
 40.07     483.07
 40.17     466.97
 40.27     547.32
 40.37     512.00
 40.47     480.00
 40.57     493.63
 40.67     497.00
 40.77     512.00
 40.87     500.00
 40.97     498.48
 41.07     479.00
 41.17     488.00
 41.27     470.17
 41.37     543.70
 41.47     511.00
 41.57     464.00
 41.67     519.00
 41.77     519.00
 41.87     469.85
 41.97     491.09
 42.07     516.00
 42.17     492.00
 42.27     537.00
 42.37     526.00
 42.47     598.00
 42.57     574.62
 42.67     651.12
 42.77     655.23
 42.87     565.00
 42.97     615.00
 43.07     549.00
 43.17     529.00
 43.27     525.00
 43.37     501.00
 43.47     535.00
 43.57     479.00
 43.67     501.98
 43.77     466.11
 43.87     525.00
 43.97     518.76
 44.07     535.48
 44.17     545.00
 44.27     512.00
 44.37     515.00
 44.47     488.00
 44.57     481.00
 44.67     534.67
 44.77     479.00
 44.87     458.00
 44.97     528.67
 45.07     525.45
 45.17     485.01
 45.27     514.98
 45.37     530.41
 45.47     522.00
 45.57     545.00
 45.67     487.00
 45.77     469.00
 45.87     551.00
 45.97     534.94
 46.07     498.00
 46.17     485.00
 46.27     538.81
 46.37     475.23
 46.47     498.84
 46.57     524.26
 46.67     511.00
 46.77     534.00
 46.87     508.00
 46.97     494.26
 47.07     487.16
 47.17     485.29
 47.27     478.00
 47.37     515.69
 47.47     550.00
 47.57     584.00
 47.67     585.00
 47.77     591.70
 47.87     601.13
 47.97     613.16
 48.07     609.06
 48.17     537.00
 48.27     517.67
 48.37     576.00
 48.47     511.00
 48.57     553.00
 48.67     498.00
 48.77     568.00
 48.87     567.27
 48.97     493.00
 49.07     584.32
 49.17     587.00
 49.27     567.01
 49.37     607.11
 49.47     639.81
 49.57     737.00
 49.67     894.87
 49.77    1126.43
 49.87    1454.24
 49.97    1845.49
 50.07    2331.00
 50.17    2510.00
 50.27    2439.20
 50.37    2253.00
 50.47    1850.00
 50.57    1487.00
 50.67    1051.00
 50.77     899.70
 50.87     739.48
 50.97     669.00
 51.07     660.00
 51.17     572.00
 51.27     579.80
 51.37     556.00
 51.47     587.25
 51.57     551.00
 51.67     569.00
 51.77     501.00
 51.87     497.31
 51.97     572.88
 52.07     521.00
 52.17     554.00
 52.27     490.72
 52.37     541.00
 52.47     496.59
 52.57     556.00
 52.67     587.00
 52.77     622.00
 52.87     669.18
 52.97     724.00
 53.07     814.00
 53.17     889.00
 53.27    1005.00
 53.37    1124.96
 53.47    1181.00
 53.57    1114.00
 53.67    1099.00
 53.77     972.00
 53.87     837.00
 53.97     787.46
 54.07     694.00
 54.17     617.89
 54.27     623.34
 54.37     560.00
 54.47     583.29
 54.57     557.00
 54.67     566.87
 54.77     521.00
 54.87     581.00
 54.97     569.00
 55.07     529.00
 55.17     513.84
 55.27     532.00
 55.37     578.00
 55.47     548.69
 55.57     568.00
 55.67     604.00
 55.77     588.00
 55.87     589.00
 55.97     619.00
 56.07     702.10
 56.17     774.00
 56.27     938.58
 56.37    1083.19
 56.47    1357.00
 56.57    1719.00
 56.67    2156.00
 56.77    2508.98
 56.87    2604.00
 56.97    2681.61
 57.07    2383.10
 57.17    2021.00
 57.27    1590.66
 57.37    1328.00
 57.47    1053.00
 57.57     873.00
 57.67     766.27
 57.77     694.00
 57.87     687.00
 57.97     707.45
 58.07     697.00
 58.17     708.00
 58.27     778.72
 58.37     844.00
 58.47     953.00
 58.57    1120.00
 58.67    1256.18
 58.77    1366.00
 58.87    1394.22
 58.97    1563.88
 59.07    1518.78
 59.17    1486.00
 59.27    1484.00
 59.37    1291.17
 59.47    1340.00
 59.57    1171.00
 59.67    1088.81
 59.77    1189.00
 59.87    1301.00
 59.97    1348.94
 60.07    1432.00
 60.17    1494.63
 60.27    1502.00
 60.37    1494.00
 60.47    1423.00
 60.57    1278.00
 60.67    1093.00
 60.77     916.00
 60.87     769.14
 60.97     721.00
 61.07     629.78
 61.17     626.00
 61.27     590.00
 61.37     656.00
 61.47     734.31
 61.57     716.73
 61.67     845.00
 61.77     884.00
 61.87    1181.14
 61.97    1205.56
 62.07    1372.00
 62.17    1496.00
 62.27    1388.00
 62.37    1403.56
 62.47    1162.20
 62.57    1056.00
 62.67     876.89
 62.77     831.00
 62.87     666.00
 62.97     688.99
 63.07     601.00
 63.17     607.00
 63.27     600.00
 63.37     597.00
 63.47     573.00
 63.57     597.00
 63.67     609.00
 63.77     580.00
 63.87     652.00
 63.97     681.00
 64.07     736.00
 64.17     755.00
 64.27     768.39
 64.37     947.00
 64.47     990.62
 64.57     936.00
 64.67     983.53
 64.77    1001.00
 64.87     993.00
 64.97     868.30
 65.07     848.00
 65.17     781.77
 65.27     727.34
 65.37     686.73
 65.47     633.85
 65.57     583.00
 65.67     631.55
 65.77     577.03
 65.87     528.00
 65.97     602.09
 66.07     553.00
 66.17     549.81
 66.27     551.00
 66.37     572.00
 66.47     584.00
 66.57     551.00
 66.67     575.00
 66.77     578.00
 66.87     594.00
 66.97     576.00
 67.07     612.00
 67.17     643.00
 67.27     767.95
 67.37     895.00
 67.47    1100.00
 67.57    1251.00
 67.67    1512.28
 67.77    1750.00
 67.87    2123.45
 67.97    2209.57
 68.07    2383.18
 68.17    2376.56
 68.27    2222.00
 68.37    1974.45
 68.47    1805.00
 68.57    1603.00
 68.67    1223.22
 68.77    1025.00
 68.87     836.00
 68.97     815.74
 69.07     758.00
 69.17     663.00
 69.27     581.30
 69.37     619.00
 69.47     623.00
 69.57     567.00
 69.67     622.00
 69.77     581.00
 69.87     555.00
 69.97     603.15
 70.07     592.00
 70.17     627.00
 70.27     552.46
 70.37     588.31
 70.47     596.00
 70.57     596.39
 70.67     565.00
 70.77     575.00
 70.87     585.00
 70.97     610.41
 71.07     635.00
 71.17     722.00
 71.27     823.88
 71.37     938.00
 71.47    1069.00
 71.57    1220.03
 71.67    1411.00
 71.77    1608.00
 71.87    1830.00
 71.97    1839.16
 72.07    1993.00
 72.17    1794.00
 72.27    1901.00
 72.37    1660.40
 72.47    1405.45
 72.57    1336.00
 72.67    1195.00
 72.77    1098.52
 72.87    1021.18
 72.97     907.00
 73.07     802.76
 73.17     814.00
 73.27     678.00
 73.37     730.20
 73.47     628.00
 73.57     628.00
 73.67     628.00
 73.77     570.00
 73.87     594.02
 73.97     606.00
 74.07     625.00
 74.17     575.00
 74.27     603.00
 74.37     628.00
 74.47     617.07
 74.57     660.00
 74.67     673.00
 74.77     651.00
 74.87     526.58
 74.97     541.56
 75.07     513.65
 75.17     577.00
 75.27     551.00
 75.37     593.00
 75.47     561.00
 75.57     580.00
 75.67     575.21
 75.77     569.00
 75.87     570.00
 75.97     600.00
 76.07     622.50
 76.17     625.00
 76.27     695.62
 76.37     699.70
 76.47     694.00
 76.57     683.00
 76.67     701.00
 76.77     644.48
 76.87     690.00
 76.97     598.00
 77.07     635.00
 77.17     645.19
 77.27     583.00
 77.37     570.22
 77.47     582.00
 77.57     535.00
 77.67     515.00
 77.77     558.00
 77.87     540.00
 77.97     559.55
 78.07     505.13
 78.17     489.68
 78.27     506.79
 78.37     546.00
 78.47     542.28
 78.57     510.00
 78.67     512.75
 78.77     531.00
 78.87     564.48
 78.97     535.53
 79.07     506.00
 79.17     493.93
 79.27     490.70
 79.37     514.00
 79.47     571.87
 79.57     562.00
 79.67     536.00
 79.77     526.44
 79.87     506.00
 79.97     542.00
 80.07     543.69
 80.17     558.00
 80.27     575.69
 80.37     603.00
 80.47     580.00
 80.57     591.00
 80.67     624.64
 80.77     646.00
 80.87     664.00
 80.97     720.86
 81.07     705.00
 81.17     695.00
 81.27     762.00
 81.37     783.17
 81.47     754.00
 81.57     761.00
 81.67     737.00
 81.77     734.00
 81.87     756.44
 81.97     725.00
 82.07     642.00
 82.17     636.36
 82.27     657.00
 82.37     645.00
 82.47     624.14
 82.57     589.00
 82.67     569.00
 82.77     518.00
 82.87     547.00
 82.97     539.00
 83.07     531.00
 83.17     517.00
 83.27     528.75
 83.37     541.60
 83.47     553.00
 83.57     519.00
 83.67     571.00
 83.77     530.98
 83.87     583.27
 83.97     564.03
 84.07     571.00
 84.17     569.00
 84.27     570.48
 84.37     548.78
 84.47     548.00
 84.57     529.00
 84.67     569.00
 84.77     493.00
 84.87     541.00
 84.97     509.00
 85.07     534.00
 85.17     530.00
 85.27     550.00
 85.37     527.00
 85.47     555.50
 85.57     565.00
 85.67     531.00
 85.77     501.00
 85.87     539.00
 85.97     528.96
 86.07     483.00
 86.17     542.00
 86.27     526.94
 86.37     540.00
 86.47     551.00
 86.57     539.00
 86.67     590.00
 86.77     579.00
 86.87     552.82
 86.97     544.00
 87.07     674.00
 87.17     600.59
 87.27     687.00
 87.37     648.00
 87.47     665.00
 87.57     637.00
 87.67     665.21
 87.77     572.73
 87.87     602.00
 87.97     607.00
 88.07     594.00
 88.17     575.11
 88.27     604.00
 88.37     610.00
 88.47     563.00
 88.57     562.00
 88.67     593.00
 88.77     538.44
 88.87     614.00
 88.97     629.16
 89.07     570.00
 89.17     674.00
 89.27     585.00
 89.37     580.00
 89.47     588.00
 89.57     555.93
 89.67     541.00
 89.77     588.00
 89.87     601.70
 89.97     568.14
 90.07     565.00
 90.17     592.00
 90.27     564.27
 90.37     501.00
 90.47     501.00
 90.57     503.76
 90.67     568.58
 90.77     503.72
 90.87     566.00
 90.97     482.57
 91.07     528.16
 91.17     505.00
 91.27     567.83
 91.37     514.72
 91.47     527.00
 91.57     558.00
 91.67     569.74
 91.77     536.00
 91.87     531.00
 91.97     541.00
 92.07     530.46
 92.17     618.00
 92.27     615.00
 92.37     592.00
 92.47     649.00
 92.57     602.00
 92.67     652.00
 92.77     712.00
 92.87     702.00
 92.97     789.00
 93.07     782.00
 93.17     746.62
 93.27     812.00
 93.37     793.00
 93.47     818.00
 93.57     760.11
 93.67     795.23
 93.77     827.00
 93.87     894.00
 93.97     850.00
 94.07     862.00
 94.17     882.11
 94.27     891.00
 94.37     823.00
 94.47     900.40
 94.57     836.30
 94.67     945.00
 94.77     920.00
 94.87     970.00
 94.97     864.81
 95.07     892.00
 95.17     861.00
 95.27     851.02
 95.37     763.00
 95.47     751.00
 95.57     760.00
 95.67     707.00
 95.77     710.00
 95.87     715.00
 95.97     704.00
 96.07     682.00
 96.17     702.00
 96.27     729.00
 96.37     757.00
 96.47     795.00
 96.57     885.72
 96.67     950.39
 96.77     965.00
 96.87    1010.00
 96.97    1131.81
 97.07    1223.00
 97.17    1351.57
 97.27    1308.12
 97.37    1338.82
 97.47    1398.78
 97.57    1402.00
 97.67    1469.95
 97.77    1350.06
 97.87    1282.52
 97.97    1228.00
 98.07    1232.00
 98.17    1139.00
 98.27    1086.00
 98.37    1027.00
 98.47     965.00
 98.57     891.93
 98.67     851.12
 98.77     840.00
 98.87     829.00
 98.97     815.00
 99.07     814.17
 99.17     860.00
 99.27     856.00
 99.37     931.00
 99.47    1025.00
 99.57    1016.00
 99.67    1163.00
 99.77    1314.00
 99.87    1449.22
 99.97    1537.00
100.07    1601.00
100.17    1700.00
100.27    1802.23
100.37    1996.00
100.47    2067.00
100.57    2004.45
100.67    2148.00
100.77    2031.00
100.87    2124.72
100.97    1963.00
101.07    1953.00
101.17    1976.00
101.27    1863.09
101.37    1745.00
101.47    1640.00
101.57    1576.64
101.67    1453.00
101.77    1367.00
101.87    1271.06
101.97    1229.00
102.07    1191.16
102.17    1195.99
102.27    1144.00
102.37    1166.00
102.47    1136.00
102.57    1078.00
102.67    1097.44
102.77    1075.00
102.87    1057.00
102.97    1025.54
103.07     918.45
103.17     889.05
103.27     843.00
103.37     788.00
103.47     739.81
103.57     763.00
103.67     736.98
103.77     643.00
103.87     652.00
103.97     602.00
104.07     618.56
104.17     580.62
104.27     553.00
104.37     585.57
104.47     578.00
104.57     595.00
104.67     552.00
104.77     531.00
104.87     557.00
104.97     504.00
105.07     507.12
105.17     564.00
105.27     552.75
105.37     515.00
105.47     558.00
105.57     599.00
105.67     567.52
105.77     565.00
105.87     550.00
105.97     593.00
106.07     583.00
106.17     587.91
106.27     595.00
106.37     586.00
106.47     599.00
106.57     627.00
106.67     637.00
106.77     647.00
106.87     710.23
106.97     638.08
107.07     624.00
107.17     664.16
107.27     695.00
107.37     658.00
107.47     667.70
107.57     667.00
107.67     688.00
107.77     739.11
107.87     652.00
107.97     653.73
108.07     730.15
108.17     655.02
108.27     691.05
108.37     685.00
108.47     739.72
108.57     720.00
108.67     687.00
108.77     649.72
108.87     715.91
108.97     708.00
109.07     668.91
109.17     684.41
109.27     677.24
109.37     628.49
109.47     607.68
109.57     605.00
109.67     692.00
109.77     569.00
109.87     630.00
109.97     570.02
110.07     535.00
110.17     626.00
110.27     574.00
110.37     584.00
110.47     532.00
110.57     537.00
110.67     544.70
110.77     540.22
110.87     522.24
110.97     525.71
111.07     512.00
111.17     556.00
111.27     572.36
111.37     536.10
111.47     566.00
111.57     534.00
111.67     582.38
111.77     499.00
111.87     583.58
111.97     541.83
112.07     569.00
112.17     510.00
112.27     602.32
112.37     560.38
112.47     561.00
112.57     563.20
112.67     606.66
112.77     625.00
112.87     662.51
112.97     692.00
113.07     732.08
113.17     719.64
113.27     680.48
113.37     662.00
113.47     769.00
113.57     773.95
113.67     875.66
113.77     924.46
113.87     895.00
113.97     982.75
114.07    1026.00
114.17    1089.00
114.27    1090.00
114.37    1219.00
114.47    1392.00
114.57    1464.00
114.67    1614.00
114.77    1763.86
114.87    1895.90
114.97    2085.68
115.07    2336.63
115.17    2572.00
115.27    2854.00
115.37    3115.00
115.47    3458.00
115.57    3775.66
115.67    3978.00
115.77    4518.00
115.87    5053.63
115.97    5217.00
116.07    5679.85
116.17    5931.00
116.27    6295.00
116.37    6608.00
116.47    6810.08
116.57    6882.63
116.67    7126.00
116.77    7031.82
116.87    6914.00
116.97    6702.00
117.07    6514.85
117.17    6008.52
117.27    5745.00
117.37    5418.33
117.47    5154.21
117.57    4562.00
117.67    4308.00
117.77    3963.00
117.87    3720.00
117.97    3384.00
118.07    2881.30
118.17    2526.00
118.27    2334.50
118.37    1905.43
118.47    1839.82
118.57    1552.00
118.67    1452.01
118.77    1174.00
118.87    1163.84
118.97     981.05
119.07     911.93
119.17     886.00
119.27     830.00
119.37     800.06
119.47     758.76
119.57     680.26
119.67     697.00
119.77     655.00
119.87     638.44
119.97     594.00
120.07     589.14
120.17     600.00
120.27     562.90
120.37     560.30
120.47     607.03
120.57     595.61
120.67     568.36
120.77     584.00
120.87     589.00
120.97     612.00
121.07     538.00
121.17     568.00
121.27     595.16
121.37     560.00
121.47     585.00
121.57     589.49
121.67     581.00
121.77     590.00
121.87     574.00
121.97     585.00
122.07     594.00
122.17     622.00
122.27     629.00
122.37     620.00
122.47     622.00
122.57     642.00
122.67     657.00
122.77     649.35
122.87     684.85
122.97     616.47
123.07     597.00
123.17     676.00
123.27     665.00
123.37     645.00
123.47     646.00
123.57     629.36
123.67     663.54
123.77     596.26
123.87     639.00
123.97     652.62
124.07     653.00
124.17     690.00
124.27     608.00
124.37     597.00
124.47     602.89
124.57     623.00
124.67     594.90
124.77     556.00
124.87     585.00
124.97     587.00
