  9.97     649.00
 10.07     541.46
 10.17     557.52
 10.27     589.00
 10.37     582.84
 10.47     616.52
 10.57     609.24
 10.67     579.81
 10.77     596.93
 10.87     584.76
 10.97     527.00
 11.07     617.17
 11.17     581.00
 11.27     533.73
 11.37     626.00
 11.47     609.62
 11.57     587.53
 11.67     609.28
 11.77     580.72
 11.87     629.00
 11.97     665.00
 12.07     650.00
 12.17     682.00
 12.27     702.00
 12.37     634.00
 12.47     640.00
 12.57     622.59
 12.67     584.97
 12.77     616.17
 12.87     565.00
 12.97     596.00
 13.07     596.00
 13.17     552.00
 13.27     515.00
 13.37     534.00
 13.47     593.00
 13.57     565.00
 13.67     540.85
 13.77     556.89
 13.87     509.00
 13.97     589.00
 14.07     543.00
 14.17     577.00
 14.27     545.00
 14.37     575.00
 14.47     591.53
 14.57     536.00
 14.67     587.00
 14.77     612.53
 14.87     585.00
 14.97     567.00
 15.07     556.00
 15.17     577.94
 15.27     593.00
 15.37     546.00
 15.47     554.48
 15.57     592.00
 15.67     582.00
 15.77     536.00
 15.87     552.00
 15.97     532.00
 16.07     579.00
 16.17     566.00
 16.27     606.00
 16.37     587.15
 16.47     580.74
 16.57     597.62
 16.67     591.00
 16.77     561.94
 16.87     550.00
 16.97     528.13
 17.07     580.50
 17.17     548.00
 17.27     592.00
 17.37     564.00
 17.47     591.00
 17.57     575.00
 17.67     590.25
 17.77     535.00
 17.87     561.00
 17.97     560.86
 18.07     560.00
 18.17     562.00
 18.27     528.00
 18.37     598.35
 18.47     599.00
 18.57     604.00
 18.67     542.56
 18.77     558.00
 18.87     577.00
 18.97     546.20
 19.07     561.00
 19.17     553.99
 19.27     562.00
 19.37     548.00
 19.47     568.05
 19.57     587.18
 19.67     509.00
 19.77     561.00
 19.87     566.20
 19.97     545.63
 20.07     514.00
 20.17     537.76
 20.27     535.00
 20.37     573.07
 20.47     588.76
 20.57     522.00
 20.67     560.00
 20.77     550.00
 20.87     592.00
 20.97     561.00
 21.07     554.00
 21.17     582.00
 21.27     539.00
 21.37     531.00
 21.47     529.73
 21.57     528.25
 21.67     620.00
 21.77     592.04
 21.87     592.99
 21.97     517.99
 22.07     562.23
 22.17     544.00
 22.27     581.00
 22.37     542.62
 22.47     573.43
 22.57     549.00
 22.67     512.65
 22.77     577.72
 22.87     554.76
 22.97     538.00
 23.07     545.00
 23.17     534.00
 23.27     565.00
 23.37     513.69
 23.47     544.68
 23.57     570.00
 23.67     530.00
 23.77     561.48
 23.87     600.00
 23.97     527.65
 24.07     588.00
 24.17     558.00
 24.27     547.99
 24.37     536.00
 24.47     559.00
 24.57     558.00
 24.67     633.00
 24.77     602.00
 24.87     644.23
 24.97     626.00
 25.07     592.00
 25.17     584.90
 25.27     525.36
 25.37     531.00
 25.47     530.65
 25.57     535.86
 25.67     544.00
 25.77     526.00
 25.87     564.00
 25.97     561.00
 26.07     534.00
 26.17     600.00
 26.27     580.00
 26.37     582.00
 26.47     521.85
 26.57     571.00
 26.67     574.00
 26.77     539.00
 26.87     520.93
 26.97     539.00
 27.07     573.00
 27.17     527.00
 27.27     532.86
 27.37     573.53
 27.47     520.42
 27.57     579.00
 27.67     544.00
 27.77     554.00
 27.87     625.00
 27.97     689.00
 28.07     797.86
 28.17     888.21
 28.27     983.00
 28.37     880.57
 28.47     788.81
 28.57     681.73
 28.67     672.00
 28.77     720.00
 28.87     771.00
 28.97     834.85
 29.07     752.00
 29.17     744.73
 29.27     634.00
 29.37     564.73
 29.47     640.00
 29.57     579.00
 29.67     581.00
 29.77     580.00
 29.87     581.00
 29.97     620.00
 30.07     608.00
 30.17     583.00
 30.27     514.58
 30.37     523.82
 30.47     530.00
 30.57     558.00
 30.67     589.67
 30.77     627.45
 30.87     628.00
 30.97     617.99
 31.07     627.88
 31.17     587.00
 31.27     603.39
 31.37     540.00
 31.47     526.00
 31.57     503.16
 31.67     527.00
 31.77     544.67
 31.87     525.00
 31.97     555.00
 32.07     528.00
 32.17     570.00
 32.27     540.00
 32.37     563.00
 32.47     518.14
 32.57     485.00
 32.67     499.00
 32.77     552.00
 32.87     526.33
 32.97     563.18
 33.07     533.00
 33.17     493.20
 33.27     590.00
 33.37     581.68
 33.47     566.00
 33.57     613.22
 33.67     634.00
 33.77     749.00
 33.87     877.00
 33.97     990.00
 34.07    1066.00
 34.17     991.00
 34.27     876.00
 34.37     750.61
 34.47     670.00
 34.57     600.00
 34.67     587.00
 34.77     586.32
 34.87     552.00
 34.97     521.00
 35.07     491.66
 35.17     519.00
 35.27     526.98
 35.37     549.00
 35.47     544.85
 35.57     512.00
 35.67     483.00
 35.77     521.00
 35.87     529.00
 35.97     493.01
 36.07     542.00
 36.17     535.00
 36.27     515.88
 36.37     521.00
 36.47     512.00
 36.57     496.00
 36.67     511.00
 36.77     543.00
 36.87     544.35
 36.97     501.35
 37.07     538.16
 37.17     556.21
 37.27     495.00
 37.37     532.36
 37.47     519.00
 37.57     524.00
 37.67     468.00
 37.77     524.00
 37.87     521.00
 37.97     495.10
 38.07     523.14
 38.17     527.37
 38.27     526.53
 38.37     473.26
 38.47     516.41
 38.57     500.30
 38.67     519.97
 38.77     545.21
 38.87     528.08
 38.97     532.00
 39.07     513.59
 39.17     557.00
 39.27     476.32
 39.37     544.58
 39.47     514.00
 39.57     514.00
 39.67     525.00
 39.77     508.00
 39.87     484.00
 39.97     534.65
 40.07     494.00
 40.17     529.88
 40.27     546.23
 40.37     519.00
 40.47     523.00
 40.57     497.00
 40.67     486.00
 40.77     536.86
 40.87     541.08
 40.97     509.00
 41.07     492.00
 41.17     519.00
 41.27     483.00
 41.37     547.85
 41.47     516.00
 41.57     493.00
 41.67     543.00
 41.77     509.45
 41.87     490.00
 41.97     528.09
 42.07     489.00
 42.17     528.00
 42.27     566.43
 42.37     503.00
 42.47     596.01
 42.57     622.00
 42.67     617.00
 42.77     600.39
 42.87     539.00
 42.97     532.93
 43.07     546.00
 43.17     558.00
 43.27     492.58
 43.37     503.18
 43.47     556.00
 43.57     488.00
 43.67     494.00
 43.77     501.00
 43.87     537.54
 43.97     540.00
 44.07     531.48
 44.17     499.00
 44.27     519.00
 44.37     548.23
 44.47     486.00
 44.57     504.87
 44.67     508.00
 44.77     499.16
 44.87     504.00
 44.97     469.36
 45.07     546.17
 45.17     488.00
 45.27     543.46
 45.37     502.00
 45.47     533.21
 45.57     501.17
 45.67     511.00
 45.77     509.00
 45.87     537.75
 45.97     530.00
 46.07     488.01
 46.17     503.00
 46.27     528.00
 46.37     515.00
 46.47     488.00
 46.57     536.51
 46.67     493.00
 46.77     534.00
 46.87     550.24
 46.97     516.00
 47.07     499.00
 47.17     544.00
 47.27     484.38
 47.37     521.84
 47.47     510.00
 47.57     562.00
 47.67     565.52
 47.77     623.00
 47.87     595.00
 47.97     619.86
 48.07     580.00
 48.17     552.00
 48.27     575.00
 48.37     496.82
 48.47     530.00
 48.57     533.00
 48.67     516.00
 48.77     537.00
 48.87     540.00
 48.97     552.00
 49.07     585.12
 49.17     598.71
 49.27     652.15
 49.37     689.00
 49.47     712.00
 49.57     784.00
 49.67     918.00
 49.77    1215.00
 49.87    1428.00
 49.97    1836.00
 50.07    2242.50
 50.17    2551.34
 50.27    2494.09
 50.37    2284.00
 50.47    1815.09
 50.57    1446.22
 50.67    1045.00
 50.77     751.00
 50.87     717.00
 50.97     641.00
 51.07     670.00
 51.17     575.00
 51.27     626.90
 51.37     574.00
 51.47     600.27
 51.57     576.00
 51.67     552.00
 51.77     569.00
 51.87     578.72
 51.97     563.00
 52.07     560.00
 52.17     514.42
 52.27     507.12
 52.37     576.35
 52.47     523.00
 52.57     560.00
 52.67     596.00
 52.77     585.00
 52.87     603.35
 52.97     666.78
 53.07     840.00
 53.17     923.00
 53.27    1006.00
 53.37    1096.06
 53.47    1218.33
 53.57    1138.92
 53.67    1132.44
 53.77     997.00
 53.87     904.00
 53.97     786.06
 54.07     692.01
 54.17     650.90
 54.27     626.00
 54.37     547.00
 54.47     571.00
 54.57     518.85
 54.67     525.00
 54.77     563.00
 54.87     552.00
 54.97     546.00
 55.07     562.00
 55.17     501.00
 55.27     544.00
 55.37     570.00
 55.47     515.66
 55.57     540.87
 55.67     596.00
 55.77     631.00
 55.87     559.28
 55.97     645.00
 56.07     689.00
 56.17     803.83
 56.27     932.32
 56.37    1134.00
 56.47    1430.00
 56.57    1828.00
 56.67    2000.00
 56.77    2485.00
 56.87    2727.00
 56.97    2510.02
 57.07    2370.35
 57.17    1979.65
 57.27    1616.00
 57.37    1325.00
 57.47    1037.00
 57.57     890.00
 57.67     715.84
 57.77     674.00
 57.87     657.01
 57.97     696.00
 58.07     705.44
 58.17     678.99
 58.27     754.02
 58.37     841.00
 58.47     961.00
 58.57    1100.00
 58.67    1278.69
 58.77    1331.00
 58.87    1398.00
 58.97    1651.00
 59.07    1523.00
 59.17    1479.29
 59.27    1377.49
 59.37    1360.00
 59.47    1285.00
 59.57    1159.00
 59.67    1120.00
 59.77    1149.52
 59.87    1182.00
 59.97    1377.00
 60.07    1457.00
 60.17    1501.26
 60.27    1488.27
 60.37    1509.11
 60.47    1331.00
 60.57    1202.00
 60.67    1180.00
 60.77     897.00
 60.87     791.00
 60.97     736.00
 61.07     683.00
 61.17     652.00
 61.27     600.12
 61.37     695.50
 61.47     682.29
 61.57     753.00
 61.67     850.48
 61.77     984.88
 61.87    1104.00
 61.97    1244.00
 62.07    1319.01
 62.17    1452.53
 62.27    1362.00
 62.37    1370.25
 62.47    1204.36
 62.57    1071.00
 62.67     877.00
 62.77     787.56
 62.87     680.97
 62.97     646.87
 63.07     613.00
 63.17     590.00
 63.27     579.61
 63.37     533.62
 63.47     552.00
 63.57     601.00
 63.67     613.41
 63.77     564.93
 63.87     658.00
 63.97     654.69
 64.07     656.49
 64.17     733.00
 64.27     876.11
 64.37     925.00
 64.47     995.00
 64.57     975.17
 64.67    1040.96
 64.77    1062.00
 64.87     961.22
 64.97     892.00
 65.07     839.00
 65.17     757.17
 65.27     733.00
 65.37     699.59
 65.47     684.00
 65.57     602.00
 65.67     587.42
 65.77     576.00
 65.87     560.00
 65.97     598.00
 66.07     540.00
 66.17     567.62
 66.27     569.00
 66.37     588.19
 66.47     563.00
 66.57     595.76
 66.67     521.00
 66.77     564.00
 66.87     541.00
 66.97     624.12
 67.07     642.00
 67.17     660.00
 67.27     783.00
 67.37     888.00
 67.47    1106.80
 67.57    1308.00
 67.67    1520.00
 67.77    1808.00
 67.87    1998.90
 67.97    2387.00
 68.07    2496.00
 68.17    2406.00
 68.27    2241.45
 68.37    2005.15
 68.47    1852.00
 68.57    1526.00
 68.67    1264.00
 68.77    1077.00
 68.87     872.99
 68.97     712.00
 69.07     723.00
 69.17     654.00
 69.27     645.00
 69.37     637.00
 69.47     616.00
 69.57     599.00
 69.67     605.00
 69.77     559.00
 69.87     589.54
 69.97     571.00
 70.07     569.00
 70.17     592.29
 70.27     561.00
 70.37     562.00
 70.47     592.00
 70.57     568.00
 70.67     604.68
 70.77     613.30
 70.87     593.00
 70.97     627.00
 71.07     657.00
 71.17     753.28
 71.27     796.00
 71.37     923.00
 71.47    1130.00
 71.57    1267.00
 71.67    1429.00
 71.77    1602.00
 71.87    1823.00
 71.97    1819.03
 72.07    1913.00
 72.17    1861.00
 72.27    1791.18
 72.37    1621.00
 72.47    1478.00
 72.57    1374.55
 72.67    1245.53
 72.77    1039.00
 72.87     920.00
 72.97     893.29
 73.07     807.04
 73.17     810.72
 73.27     772.78
 73.37     631.00
 73.47     634.00
 73.57     683.49
 73.67     621.00
 73.77     632.03
 73.87     599.00
 73.97     597.00
 74.07     586.00
 74.17     573.55
 74.27     570.00
 74.37     635.00
 74.47     624.00
 74.57     647.00
 74.67     629.00
 74.77     642.00
 74.87     625.00
 74.97     559.53
 75.07     552.00
 75.17     557.00
 75.27     595.66
 75.37     566.00
 75.47     571.00
 75.57     520.00
 75.67     588.00
 75.77     589.93
 75.87     558.33
 75.97     628.00
 76.07     626.00
 76.17     650.08
 76.27     615.00
 76.37     707.00
 76.47     660.23
 76.57     724.62
 76.67     679.00
 76.77     730.83
 76.87     673.00
 76.97     602.56
 77.07     644.86
 77.17     588.00
 77.27     573.00
 77.37     542.52
 77.47     539.00
 77.57     566.38
 77.67     472.00
 77.77     561.00
 77.87     493.00
 77.97     523.00
 78.07     490.49
 78.17     506.00
 78.27     493.55
 78.37     504.00
 78.47     538.46
 78.57     527.00
 78.67     511.00
 78.77     532.00
 78.87     488.44
 78.97     471.00
 79.07     558.00
 79.17     522.00
 79.27     556.19
 79.37     548.00
 79.47     540.00
 79.57     527.24
 79.67     555.77
 79.77     507.48
 79.87     525.00
 79.97     534.00
 80.07     533.86
 80.17     574.00
 80.27     598.23
 80.37     595.97
 80.47     594.00
 80.57     573.00
 80.67     603.00
 80.77     679.00
 80.87     625.00
 80.97     652.00
 81.07     683.53
 81.17     763.88
 81.27     683.00
 81.37     736.00
 81.47     743.00
 81.57     833.00
 81.67     777.00
 81.77     751.00
 81.87     700.00
 81.97     713.00
 82.07     723.00
 82.17     656.94
 82.27     649.00
 82.37     637.00
 82.47     604.00
 82.57     558.80
 82.67     612.00
 82.77     532.21
 82.87     545.00
 82.97     575.11
 83.07     602.00
 83.17     545.00
 83.27     546.00
 83.37     549.00
 83.47     551.00
 83.57     537.00
 83.67     608.30
 83.77     561.00
 83.87     604.96
 83.97     582.00
 84.07     542.96
 84.17     590.69
 84.27     536.00
 84.37     523.28
 84.47     561.24
 84.57     581.00
 84.67     537.00
 84.77     543.00
 84.87     529.00
 84.97     566.65
 85.07     504.00
 85.17     538.00
 85.27     562.98
 85.37     550.00
 85.47     529.00
 85.57     542.00
 85.67     525.00
 85.77     514.00
 85.87     520.00
 85.97     542.25
 86.07     569.96
 86.17     534.04
 86.27     533.00
 86.37     522.00
 86.47     584.00
 86.57     563.00
 86.67     608.76
 86.77     541.48
 86.87     545.03
 86.97     597.00
 87.07     622.00
 87.17     659.00
 87.27     681.00
 87.37     692.00
 87.47     566.00
 87.57     670.00
 87.67     626.00
 87.77     620.68
 87.87     634.00
 87.97     609.88
 88.07     569.27
 88.17     632.00
 88.27     575.14
 88.37     607.00
 88.47     602.52
 88.57     534.86
 88.67     571.00
 88.77     589.00
 88.87     538.45
 88.97     595.44
 89.07     548.76
 89.17     613.00
 89.27     615.00
 89.37     605.08
 89.47     626.00
 89.57     612.00
 89.67     548.00
 89.77     573.00
 89.87     562.00
 89.97     590.86
 90.07     608.84
 90.17     543.00
 90.27     557.22
 90.37     512.35
 90.47     531.00
 90.57     582.00
 90.67     568.52
 90.77     510.00
 90.87     513.00
 90.97     487.30
 91.07     557.91
 91.17     566.05
 91.27     545.00
 91.37     555.00
 91.47     532.00
 91.57     557.95
 91.67     514.00
 91.77     544.00
 91.87     524.00
 91.97     555.24
 92.07     595.41
 92.17     586.00
 92.27     628.00
 92.37     579.00
 92.47     609.00
 92.57     680.00
 92.67     638.07
 92.77     655.00
 92.87     809.00
 92.97     720.00
 93.07     724.00
 93.17     763.59
 93.27     749.00
 93.37     804.13
 93.47     806.69
 93.57     799.00
 93.67     867.00
 93.77     848.03
 93.87     816.00
 93.97     815.00
 94.07     809.70
 94.17     862.00
 94.27     849.00
 94.37     861.56
 94.47     912.00
 94.57     832.00
 94.67     922.00
 94.77     919.00
 94.87     934.73
 94.97     928.00
 95.07     927.00
 95.17     849.00
 95.27     819.00
 95.37     820.00
 95.47     715.49
 95.57     704.00
 95.67     689.83
 95.77     702.16
 95.87     737.00
 95.97     671.00
 96.07     662.00
 96.17     687.00
 96.27     728.00
 96.37     756.00
 96.47     858.04
 96.57     904.92
 96.67     908.32
 96.77    1013.00
 96.87    1072.27
 96.97    1090.00
 97.07    1178.00
 97.17    1324.75
 97.27    1325.00
 97.37    1343.98
 97.47    1466.20
 97.57    1405.00
 97.67    1385.00
 97.77    1321.00
 97.87    1408.78
 97.97    1325.55
 98.07    1235.00
 98.17    1113.00
 98.27    1103.00
 98.37    1032.93
 98.47     979.00
 98.57     917.59
 98.67     868.00
 98.77     793.00
 98.87     803.00
 98.97     788.00
 99.07     783.00
 99.17     887.00
 99.27     874.32
 99.37     956.08
 99.47     963.00
 99.57    1038.69
 99.67    1166.00
 99.77    1282.62
 99.87    1369.00
 99.97    1532.00
100.07    1651.00
100.17    1726.07
100.27    1834.87
100.37    1959.00
100.47    2028.00
100.57    2145.00
100.67    2065.00
100.77    2114.00
100.87    2089.50
100.97    2080.00
101.07    1967.00
101.17    1894.00
101.27    1777.14
101.37    1703.04
101.47    1618.00
101.57    1486.00
101.67    1446.00
101.77    1394.00
101.87    1280.00
101.97    1223.00
102.07    1222.00
102.17    1117.00
102.27    1078.00
102.37    1120.00
102.47    1059.28
102.57    1056.83
102.67    1022.04
102.77    1034.00
102.87     988.00
102.97     958.00
103.07     865.00
103.17     888.00
103.27     876.00
103.37     827.40
103.47     764.00
103.57     807.00
103.67     724.03
103.77     717.47
103.87     668.41
103.97     626.00
104.07     640.00
104.17     631.00
104.27     565.00
104.37     538.00
104.47     575.23
104.57     529.00
104.67     522.00
104.77     537.00
104.87     506.61
104.97     584.00
105.07     513.00
105.17     571.00
105.27     583.33
105.37     500.74
105.47     530.00
105.57     538.00
105.67     549.00
105.77     522.30
105.87     572.83
105.97     567.00
106.07     582.00
106.17     652.00
106.27     565.74
106.37     592.31
106.47     612.00
106.57     610.00
106.67     626.00
106.77     651.23
106.87     680.00
106.97     647.91
107.07     665.00
107.17     674.00
107.27     660.00
107.37     664.00
107.47     736.78
107.57     684.00
107.67     700.00
107.77     727.92
107.87     729.87
107.97     675.00
108.07     659.66
108.17     638.00
108.27     708.00
108.37     690.00
108.47     648.00
108.57     653.00
108.67     679.00
108.77     732.04
108.87     670.00
108.97     645.19
109.07     644.00
109.17     647.00
109.27     709.23
109.37     619.86
109.47     635.09
109.57     621.20
109.67     668.41
109.77     651.00
109.87     627.00
109.97     640.00
110.07     606.00
110.17     621.46
110.27     598.59
110.37     610.00
110.47     533.00
110.57     557.46
110.67     548.00
110.77     531.31
110.87     508.00
110.97     558.00
111.07     537.00
111.17     516.00
111.27     556.54
111.37     528.28
111.47     556.00
111.57     514.57
111.67     519.41
111.77     528.22
111.87     598.10
111.97     546.00
112.07     568.00
112.17     541.88
112.27     567.00
112.37     620.89
112.47     663.00
112.57     653.82
112.67     575.00
112.77     629.00
112.87     684.13
112.97     636.00
113.07     722.00
113.17     662.46
113.27     695.40
113.37     798.00
113.47     799.00
113.57     844.00
113.67     804.00
113.77     874.00
113.87     916.00
113.97     988.96
114.07    1024.84
114.17    1068.00
114.27    1175.64
114.37    1166.59
114.47    1287.57
114.57    1421.00
114.67    1601.00
114.77    1771.00
114.87    1836.00
114.97    2144.61
115.07    2297.55
115.17    2594.00
115.27    2849.00
115.37    3154.00
115.47    3478.04
115.57    3787.00
115.67    4060.00
115.77    4503.00
115.87    4793.00
115.97    5206.00
116.07    5583.01
116.17    6077.00
116.27    6323.00
116.37    6704.00
116.47    6890.10
116.57    6959.00
116.67    6785.35
116.77    6921.00
116.87    6833.00
116.97    6744.00
117.07    6312.08
117.17    6172.00
117.27    5615.00
117.37    5395.95
117.47    4976.00
117.57    4533.00
117.67    4329.00
117.77    3968.00
117.87    3517.49
117.97    3176.99
118.07    3014.00
118.17    2576.00
118.27    2333.00
118.37    2049.23
118.47    1796.47
118.57    1521.00
118.67    1342.93
118.77    1261.00
118.87    1066.00
118.97    1072.00
119.07    1001.00
119.17     835.33
119.27     879.47
119.37     736.23
119.47     728.74
119.57     659.18
119.67     710.00
119.77     683.00
119.87     675.64
119.97     603.00
120.07     578.05
120.17     616.00
120.27     571.00
120.37     581.00
120.47     602.14
120.57     600.05
120.67     575.00
120.77     606.00
120.87     574.26
120.97     587.00
121.07     533.00
121.17     589.00
121.27     549.51
121.37     529.21
121.47     558.00
121.57     563.13
121.67     591.00
121.77     605.00
121.87     635.68
121.97     607.31
122.07     581.46
122.17     576.00
122.27     634.00
122.37     587.25
122.47     618.05
122.57     612.00
122.67     660.00
122.77     598.60
122.87     611.00
122.97     672.80
123.07     625.64
123.17     629.00
123.27     636.00
123.37     657.82
123.47     653.00
123.57     615.00
123.67     604.00
123.77     648.00
123.87     630.00
123.97     615.00
124.07     622.00
124.17     610.00
124.27     607.00
124.37     588.64
124.47     595.41
124.57     568.00
124.67     601.00
124.77     615.00
124.87     555.00
124.97     568.00
