  9.97     635.00
 10.07     654.00
 10.17     570.00
 10.27     516.58
 10.37     582.15
 10.47     603.00
 10.57     563.31
 10.67     579.00
 10.77     575.00
 10.87     540.95
 10.97     574.00
 11.07     581.00
 11.17     564.00
 11.27     576.00
 11.37     532.00
 11.47     585.00
 11.57     626.00
 11.67     576.00
 11.77     585.00
 11.87     615.00
 11.97     663.20
 12.07     648.00
 12.17     646.70
 12.27     687.00
 12.37     636.00
 12.47     605.00
 12.57     616.00
 12.67     588.00
 12.77     554.00
 12.87     565.00
 12.97     532.00
 13.07     555.00
 13.17     536.00
 13.27     522.04
 13.37     520.00
 13.47     526.00
 13.57     548.34
 13.67     524.00
 13.77     582.61
 13.87     554.00
 13.97     580.00
 14.07     582.00
 14.17     587.00
 14.27     530.57
 14.37     524.72
 14.47     563.00
 14.57     535.00
 14.67     576.00
 14.77     545.00
 14.87     512.00
 14.97     542.00
 15.07     535.00
 15.17     573.00
 15.27     547.00
 15.37     509.00
 15.47     517.00
 15.57     519.00
 15.67     567.00
 15.77     554.00
 15.87     543.00
 15.97     522.44
 16.07     594.35
 16.17     519.43
 16.27     600.17
 16.37     584.00
 16.47     563.00
 16.57     585.00
 16.67     558.00
 16.77     523.72
 16.87     582.00
 16.97     609.00
 17.07     574.00
 17.17     541.00
 17.27     569.38
 17.37     566.38
 17.47     548.00
 17.57     519.00
 17.67     588.00
 17.77     556.00
 17.87     511.00
 17.97     568.00
 18.07     536.05
 18.17     558.99
 18.27     565.00
 18.37     582.23
 18.47     548.00
 18.57     509.00
 18.67     553.00
 18.77     493.00
 18.87     519.00
 18.97     558.00
 19.07     541.41
 19.17     577.00
 19.27     549.00
 19.37     580.02
 19.47     591.00
 19.57     574.00
 19.67     540.00
 19.77     530.00
 19.87     521.00
 19.97     516.99
 20.07     525.00
 20.17     556.99
 20.27     522.00
 20.37     558.00
 20.47     542.00
 20.57     558.00
 20.67     530.00
 20.77     557.67
 20.87     517.27
 20.97     568.95
 21.07     516.96
 21.17     512.00
 21.27     559.00
 21.37     555.00
 21.47     522.69
 21.57     543.00
 21.67     573.99
 21.77     546.00
 21.87     550.58
 21.97     519.00
 22.07     594.79
 22.17     556.00
 22.27     584.00
 22.37     578.30
 22.47     585.73
 22.57     586.00
 22.67     525.00
 22.77     559.46
 22.87     519.10
 22.97     560.00
 23.07     531.00
 23.17     574.00
 23.27     560.00
 23.37     586.00
 23.47     535.00
 23.57     584.49
 23.67     557.00
 23.77     588.76
 23.87     567.00
 23.97     550.00
 24.07     557.00
 24.17     569.00
 24.27     580.00
 24.37     592.00
 24.47     587.00
 24.57     559.02
 24.67     628.00
 24.77     659.00
 24.87     674.85
 24.97     577.70
 25.07     604.29
 25.17     616.32
 25.27     553.64
 25.37     587.02
 25.47     588.00
 25.57     525.82
 25.67     596.00
 25.77     590.00
 25.87     590.00
 25.97     548.00
 26.07     617.00
 26.17     577.00
 26.27     522.38
 26.37     572.78
 26.47     548.00
 26.57     525.00
 26.67     543.00
 26.77     512.85
 26.87     547.35
 26.97     563.00
 27.07     577.00
 27.17     592.73
 27.27     579.00
 27.37     573.00
 27.47     512.79
 27.57     514.35
 27.67     584.00
 27.77     606.00
 27.87     577.28
 27.97     596.79
 28.07     717.00
 28.17     838.01
 28.27     896.00
 28.37     921.14
 28.47     903.00
 28.57     789.00
 28.67     750.00
 28.77     734.00
 28.87     784.00
 28.97     815.00
 29.07     809.00
 29.17     730.55
 29.27     709.00
 29.37     642.90
 29.47     583.00
 29.57     600.00
 29.67     577.00
 29.77     571.96
 29.87     569.00
 29.97     600.00
 30.07     513.80
 30.17     555.00
 30.27     607.00
 30.37     554.00
 30.47     583.00
 30.57     601.00
 30.67     637.00
 30.77     567.00
 30.87     585.00
 30.97     580.00
 31.07     574.48
 31.17     608.00
 31.27     554.00
 31.37     546.24
 31.47     528.00
 31.57     537.45
 31.67     592.00
 31.77     514.99
 31.87     545.00
 31.97     587.00
 32.07     536.88
 32.17     507.61
 32.27     496.10
 32.37     575.00
 32.47     503.81
 32.57     497.56
 32.67     483.56
 32.77     548.00
 32.87     505.74
 32.97     528.00
 33.07     555.00
 33.17     518.98
 33.27     515.91
 33.37     571.00
 33.47     551.00
 33.57     596.00
 33.67     596.00
 33.77     665.00
 33.87     798.45
 33.97     884.00
 34.07    1025.00
 34.17     950.96
 34.27     950.00
 34.37     830.43
 34.47     705.00
 34.57     617.00
 34.67     601.00
 34.77     594.00
 34.87     549.00
 34.97     497.86
 35.07     517.82
 35.17     538.00
 35.27     468.00
 35.37     488.16
 35.47     483.00
 35.57     492.00
 35.67     476.00
 35.77     490.00
 35.87     511.00
 35.97     476.00
 36.07     524.00
 36.17     501.00
 36.27     528.00
 36.37     477.00
 36.47     504.00
 36.57     485.05
 36.67     505.00
 36.77     469.35
 36.87     522.00
 36.97     499.51
 37.07     528.00
 37.17     523.88
 37.27     481.00
 37.37     471.00
 37.47     526.00
 37.57     517.00
 37.67     491.00
 37.77     521.73
 37.87     513.79
 37.97     508.00
 38.07     531.00
 38.17     494.00
 38.27     482.00
 38.37     482.00
 38.47     499.80
 38.57     515.00
 38.67     477.00
 38.77     537.43
 38.87     487.44
 38.97     511.00
 39.07     478.00
 39.17     507.46
 39.27     453.67
 39.37     550.00
 39.47     478.00
 39.57     494.00
 39.67     523.00
 39.77     493.00
 39.87     473.00
 39.97     488.27
 40.07     485.00
 40.17     462.00
 40.27     521.08
 40.37     459.89
 40.47     474.98
 40.57     472.00
 40.67     522.63
 40.77     495.00
 40.87     470.70
 40.97     454.00
 41.07     502.00
 41.17     486.00
 41.27     480.78
 41.37     480.00
 41.47     513.43
 41.57     491.00
 41.67     482.00
 41.77     490.00
 41.87     437.00
 41.97     455.34
 42.07     466.92
 42.17     427.00
 42.27     489.00
 42.37     493.94
 42.47     528.00
 42.57     529.00
 42.67     560.00
 42.77     602.00
 42.87     567.00
 42.97     542.02
 43.07     560.04
 43.17     512.00
 43.27     502.00
 43.37     471.00
 43.47     497.10
 43.57     496.00
 43.67     469.11
 43.77     491.00
 43.87     474.38
 43.97     495.00
 44.07     494.13
 44.17     512.00
 44.27     487.17
 44.37     477.00
 44.47     496.00
 44.57     522.92
 44.67     474.00
 44.77     472.00
 44.87     511.33
 44.97     503.00
 45.07     519.64
 45.17     471.79
 45.27     506.00
 45.37     462.00
 45.47     503.00
 45.57     458.79
 45.67     513.01
 45.77     470.45
 45.87     524.56
 45.97     495.00
 46.07     505.00
 46.17     488.00
 46.27     529.94
 46.37     454.23
 46.47     492.00
 46.57     475.15
 46.67     515.84
 46.77     477.09
 46.87     509.00
 46.97     512.00
 47.07     456.01
 47.17     491.37
 47.27     504.00
 47.37     479.00
 47.47     522.00
 47.57     537.64
 47.67     531.39
 47.77     535.95
 47.87     570.00
 47.97     567.76
 48.07     600.00
 48.17     565.00
 48.27     615.00
 48.37     513.00
 48.47     537.00
 48.57     532.00
 48.67     560.00
 48.77     539.00
 48.87     514.00
 48.97     539.00
 49.07     512.99
 49.17     546.41
 49.27     563.00
 49.37     548.00
 49.47     634.34
 49.57     661.00
 49.67     730.63
 49.77     853.00
 49.87    1115.09
 49.97    1335.00
 50.07    1839.40
 50.17    2084.00
 50.27    2378.91
 50.37    2323.00
 50.47    2157.00
 50.57    1844.00
 50.67    1449.00
 50.77    1123.00
 50.87     904.00
 50.97     723.00
 51.07     661.00
 51.17     658.42
 51.27     571.15
 51.37     644.00
 51.47     569.82
 51.57     555.00
 51.67     599.00
 51.77     546.23
 51.87     532.21
 51.97     577.00
 52.07     496.21
 52.17     542.45
 52.27     558.00
 52.37     531.00
 52.47     526.47
 52.57     520.02
 52.67     541.35
 52.77     548.37
 52.87     593.90
 52.97     667.38
 53.07     708.00
 53.17     778.00
 53.27     793.89
 53.37     940.00
 53.47    1073.67
 53.57    1208.00
 53.67    1162.00
 53.77    1096.44
 53.87    1023.00
 53.97     893.00
 54.07     837.10
 54.17     738.00
 54.27     662.49
 54.37     645.86
 54.47     651.00
 54.57     556.00
 54.67     507.50
 54.77     563.00
 54.87     545.00
 54.97     571.62
 55.07     565.14
 55.17     562.00
 55.27     520.00
 55.37     566.00
 55.47     570.00
 55.57     551.58
 55.67     610.56
 55.77     561.53
 55.87     610.82
 55.97     568.08
 56.07     662.03
 56.17     683.00
 56.27     820.34
 56.37     876.00
 56.47    1115.22
 56.57    1368.00
 56.67    1611.00
 56.77    1878.00
 56.87    2314.00
 56.97    2473.66
 57.07    2445.69
 57.17    2418.00
 57.27    2146.00
 57.37    1813.68
 57.47    1364.00
 57.57    1128.00
 57.67     953.00
 57.77     814.09
 57.87     796.00
 57.97     697.08
 58.07     722.00
 58.17     706.00
 58.27     710.00
 58.37     736.38
 58.47     771.00
 58.57     788.00
 58.67     950.61
 58.77    1002.88
 58.87    1089.00
 58.97    1213.51
 59.07    1237.47
 59.17    1396.00
 59.27    1343.00
 59.37    1277.90
 59.47    1262.00
 59.57    1257.00
 59.67    1175.00
 59.77    1131.22
 59.87    1146.00
 59.97    1236.00
 60.07    1386.00
 60.17    1404.00
 60.27    1528.00
 60.37    1573.00
 60.47    1483.00
 60.57    1479.00
 60.67    1317.00
 60.77    1117.00
 60.87     950.00
 60.97     863.44
 61.07     773.94
 61.17     772.00
 61.27     697.00
 61.37     680.00
 61.47     685.43
 61.57     693.00
 61.67     709.28
 61.77     849.23
 61.87     881.09
 61.97    1054.00
 62.07    1199.77
 62.17    1261.00
 62.27    1302.00
 62.37    1317.15
 62.47    1367.89
 62.57    1180.00
 62.67    1049.00
 62.77     964.78
 62.87     874.00
 62.97     757.95
 63.07     731.52
 63.17     646.00
 63.27     594.00
 63.37     587.00
 63.47     563.55
 63.57     555.64
 63.67     612.00
 63.77     565.00
 63.87     611.00
 63.97     653.00
 64.07     663.00
 64.17     677.00
 64.27     755.00
 64.37     804.00
 64.47     857.00
 64.57     877.04
 64.67     909.00
 64.77     975.00
 64.87    1028.87
 64.97     967.00
 65.07     961.69
 65.17     835.00
 65.27     812.00
 65.37     765.00
 65.47     745.70
 65.57     664.00
 65.67     635.96
 65.77     594.00
 65.87     593.00
 65.97     567.00
 66.07     631.00
 66.17     535.00
 66.27     554.85
 66.37     544.00
 66.47     578.00
 66.57     518.03
 66.67     596.51
 66.77     571.49
 66.87     581.00
 66.97     598.11
 67.07     641.00
 67.17     623.10
 67.27     683.00
 67.37     748.67
 67.47     933.85
 67.57    1082.30
 67.67    1266.65
 67.77    1460.48
 67.87    1600.46
 67.97    1901.00
 68.07    2149.29
 68.17    2302.00
 68.27    2397.00
 68.37    2304.74
 68.47    2244.00
 68.57    1891.55
 68.67    1643.88
 68.77    1397.91
 68.87    1238.00
 68.97    1163.00
 69.07     891.04
 69.17     824.00
 69.27     775.00
 69.37     641.63
 69.47     635.00
 69.57     625.00
 69.67     589.00
 69.77     620.21
 69.87     583.16
 69.97     606.00
 70.07     565.00
 70.17     534.00
 70.27     540.73
 70.37     543.00
 70.47     551.00
 70.57     559.36
 70.67     577.00
 70.77     610.24
 70.87     595.00
 70.97     595.00
 71.07     673.00
 71.17     652.00
 71.27     723.00
 71.37     717.00
 71.47     863.66
 71.57     974.00
 71.67    1158.00
 71.77    1248.00
 71.87    1516.28
 71.97    1649.00
 72.07    1780.28
 72.17    1873.00
 72.27    1858.00
 72.37    1769.63
 72.47    1656.00
 72.57    1571.00
 72.67    1411.00
 72.77    1232.00
 72.87    1075.48
 72.97     894.00
 73.07     881.00
 73.17     763.00
 73.27     763.81
 73.37     708.00
 73.47     657.00
 73.57     655.86
 73.67     577.00
 73.77     620.00
 73.87     555.00
 73.97     576.00
 74.07     599.99
 74.17     553.31
 74.27     603.00
 74.37     581.00
 74.47     599.24
 74.57     573.00
 74.67     526.64
 74.77     670.00
 74.87     626.00
 74.97     550.26
 75.07     590.00
 75.17     586.00
 75.27     577.00
 75.37     564.03
 75.47     577.00
 75.57     575.00
 75.67     515.39
 75.77     562.00
 75.87     513.99
 75.97     546.09
 76.07     617.00
 76.17     588.84
 76.27     621.00
 76.37     691.00
 76.47     661.00
 76.57     666.00
 76.67     715.00
 76.77     697.38
 76.87     688.00
 76.97     666.86
 77.07     645.00
 77.17     606.00
 77.27     589.00
 77.37     568.00
 77.47     544.00
 77.57     536.00
 77.67     548.00
 77.77     509.00
 77.87     569.13
 77.97     495.00
 78.07     508.00
 78.17     513.00
 78.27     543.98
 78.37     470.28
 78.47     486.28
 78.57     499.00
 78.67     483.00
 78.77     526.00
 78.87     525.20
 78.97     506.19
 79.07     474.00
 79.17     506.00
 79.27     490.00
 79.37     509.00
 79.47     489.00
 79.57     495.00
 79.67     482.00
 79.77     528.00
 79.87     493.00
 79.97     486.60
 80.07     511.00
 80.17     544.00
 80.27     576.00
 80.37     496.00
 80.47     552.00
 80.57     604.58
 80.67     575.46
 80.77     600.00
 80.87     595.00
 80.97     635.00
 81.07     632.00
 81.17     732.34
 81.27     659.00
 81.37     732.00
 81.47     691.53
 81.57     733.00
 81.67     733.00
 81.77     687.85
 81.87     738.00
 81.97     734.73
 82.07     689.00
 82.17     660.00
 82.27     637.28
 82.37     670.00
 82.47     663.20
 82.57     586.00
 82.67     589.00
 82.77     528.00
 82.87     521.00
 82.97     518.00
 83.07     550.00
 83.17     524.55
 83.27     538.68
 83.37     581.84
 83.47     526.00
 83.57     524.00
 83.67     502.31
 83.77     552.64
 83.87     549.00
 83.97     561.75
 84.07     539.00
 84.17     551.00
 84.27     529.00
 84.37     602.13
 84.47     587.00
 84.57     557.00
 84.67     528.00
 84.77     564.47
 84.87     564.36
 84.97     525.00
 85.07     532.00
 85.17     476.00
 85.27     512.00
 85.37     517.96
 85.47     508.37
 85.57     505.00
 85.67     460.43
 85.77     479.31
 85.87     493.00
 85.97     481.00
 86.07     538.00
 86.17     510.00
 86.27     514.00
 86.37     522.00
 86.47     547.63
 86.57     526.00
 86.67     505.00
 86.77     506.00
 86.87     552.00
 86.97     577.00
 87.07     569.00
 87.17     568.00
 87.27     560.77
 87.37     564.06
 87.47     568.96
 87.57     648.00
 87.67     601.00
 87.77     633.55
 87.87     563.54
 87.97     610.00
 88.07     645.00
 88.17     564.89
 88.27     589.00
 88.37     552.00
 88.47     588.00
 88.57     516.76
 88.67     548.00
 88.77     575.00
 88.87     554.00
 88.97     520.00
 89.07     584.51
 89.17     599.00
 89.27     595.48
 89.37     576.00
 89.47     573.00
 89.57     565.00
 89.67     561.68
 89.77     583.00
 89.87     536.23
 89.97     518.00
 90.07     609.00
 90.17     588.00
 90.27     561.00
 90.37     564.00
 90.47     516.33
 90.57     556.52
 90.67     541.30
 90.77     503.00
 90.87     475.12
 90.97     514.00
 91.07     490.32
 91.17     478.59
 91.27     529.00
 91.37     509.00
 91.47     509.01
 91.57     488.74
 91.67     533.00
 91.77     521.00
 91.87     508.00
 91.97     563.98
 92.07     530.00
 92.17     518.75
 92.27     501.78
 92.37     518.00
 92.47     502.00
 92.57     571.00
 92.67     583.00
 92.77     603.40
 92.87     626.92
 92.97     669.00
 93.07     627.00
 93.17     650.00
 93.27     703.00
 93.37     710.00
 93.47     740.00
 93.57     784.00
 93.67     738.00
 93.77     748.00
 93.87     804.31
 93.97     781.55
 94.07     778.72
 94.17     772.00
 94.27     791.00
 94.37     814.00
 94.47     806.00
 94.57     824.00
 94.67     854.00
 94.77     806.17
 94.87     902.00
 94.97     949.00
 95.07     872.89
 95.17     836.67
 95.27     877.92
 95.37     886.00
 95.47     872.00
 95.57     860.00
 95.67     792.24
 95.77     782.02
 95.87     735.00
 95.97     724.00
 96.07     720.57
 96.17     730.05
 96.27     690.00
 96.37     737.00
 96.47     741.00
 96.57     793.00
 96.67     772.00
 96.77     840.53
 96.87     855.76
 96.97     982.00
 97.07    1013.00
 97.17    1100.00
 97.27    1159.00
 97.37    1250.75
 97.47    1270.00
 97.57    1354.00
 97.67    1401.00
 97.77    1343.34
 97.87    1374.00
 97.97    1395.71
 98.07    1320.20
 98.17    1307.68
 98.27    1252.99
 98.37    1197.00
 98.47    1140.00
 98.57    1084.00
 98.67    1041.40
 98.77    1039.61
 98.87     884.06
 98.97     895.56
 99.07     898.00
 99.17     851.00
 99.27     815.00
 99.37     855.30
 99.47     927.00
 99.57     967.00
 99.67     972.00
 99.77    1053.00
 99.87    1123.63
 99.97    1149.00
100.07    1303.00
100.17    1332.12
100.27    1497.00
100.37    1629.00
100.47    1630.48
100.57    1804.00
100.67    1839.00
100.77    1853.00
100.87    1972.00
100.97    1934.00
101.07    1959.00
101.17    1880.05
101.27    1933.00
101.37    1890.00
101.47    1908.00
101.57    1773.00
101.67    1653.80
101.77    1564.00
101.87    1530.00
101.97    1434.09
102.07    1446.76
102.17    1374.00
102.27    1285.00
102.37    1248.00
102.47    1225.75
102.57    1194.87
102.67    1145.66
102.77    1196.00
102.87    1118.00
102.97    1080.11
103.07     962.00
103.17     973.00
103.27     964.40
103.37     955.00
103.47     962.74
103.57     940.00
103.67     851.00
103.77     812.00
103.87     725.62
103.97     740.12
104.07     673.20
104.17     698.00
104.27     588.61
104.37     647.00
104.47     593.94
104.57     604.00
104.67     613.00
104.77     591.76
104.87     564.00
104.97     526.00
105.07     495.08
105.17     532.12
105.27     511.00
105.37     575.00
105.47     559.33
105.57     497.00
105.67     553.00
105.77     497.36
105.87     499.00
105.97     543.00
106.07     551.00
106.17     526.00
106.27     540.38
106.37     552.06
106.47     592.00
106.57     543.00
106.67     579.00
106.77     598.00
106.87     572.00
106.97     620.00
107.07     634.00
107.17     614.33
107.27     660.00
107.37     637.43
107.47     672.29
107.57     654.00
107.67     702.00
107.77     690.28
107.87     685.93
107.97     668.34
108.07     697.00
108.17     655.56
108.27     680.00
108.37     725.90
108.47     661.00
108.57     650.96
108.67     692.63
108.77     626.00
108.87     723.18
108.97     659.59
109.07     724.04
109.17     652.26
109.27     638.00
109.37     694.59
109.47     660.48
109.57     648.00
109.67     664.00
109.77     640.00
109.87     627.86
109.97     638.00
110.07     646.00
110.17     616.00
110.27     630.90
110.37     567.16
110.47     571.00
110.57     545.13
110.67     578.00
110.77     558.00
110.87     515.00
110.97     530.84
111.07     560.00
111.17     561.00
111.27     540.00
111.37     539.00
111.47     520.85
111.57     561.00
111.67     559.00
111.77     572.97
111.87     567.12
111.97     545.00
112.07     526.75
112.17     559.00
112.27     558.00
112.37     519.00
112.47     578.00
112.57     595.00
112.67     563.00
112.77     553.00
112.87     601.38
112.97     570.00
113.07     578.00
113.17     585.00
113.27     573.02
113.37     606.59
113.47     588.00
113.57     613.00
113.67     649.00
113.77     676.51
113.87     674.00
113.97     694.00
114.07     703.00
114.17     793.00
114.27     781.92
114.37     828.02
114.47     851.00
114.57     994.79
114.67    1058.00
114.77    1106.74
114.87    1277.00
114.97    1399.72
115.07    1674.00
115.17    1753.32
115.27    2007.20
115.37    2263.62
115.47    2535.00
115.57    2828.00
115.67    3149.00
115.77    3459.00
115.87    3769.54
115.97    4178.00
116.07    4350.23
116.17    4724.00
116.27    5333.98
116.37    5488.27
116.47    5810.26
116.57    6252.00
116.67    6315.38
116.77    6559.00
116.87    6635.00
116.97    6837.93
117.07    6883.00
117.17    6901.00
117.27    6752.95
117.37    6461.00
117.47    6236.00
117.57    5992.00
117.67    5555.00
117.77    5213.00
117.87    4927.00
117.97    4636.00
118.07    4362.00
118.17    3941.00
118.27    3577.12
118.37    3187.40
118.47    2984.00
118.57    2513.07
118.67    2391.08
118.77    2155.28
118.87    1856.16
118.97    1763.52
119.07    1548.91
119.17    1331.00
119.27    1304.89
119.37    1128.00
119.47    1080.00
119.57    1003.96
119.67     913.00
119.77     864.00
119.87     848.77
119.97     791.00
120.07     786.00
120.17     737.18
120.27     671.00
120.37     675.00
120.47     666.00
120.57     612.00
120.67     621.00
120.77     603.00
120.87     617.00
120.97     603.74
121.07     559.00
121.17     590.11
121.27     564.97
121.37     550.00
121.47     554.77
121.57     570.00
121.67     607.00
121.77     572.61
121.87     593.00
121.97     572.00
122.07     624.89
122.17     553.26
122.27     594.61
122.37     631.92
122.47     621.00
122.57     645.12
122.67     584.75
122.77     590.00
122.87     680.00
122.97     583.86
123.07     598.25
123.17     627.00
123.27     650.00
123.37     676.00
123.47     614.80
123.57     623.00
123.67     589.31
123.77     615.00
123.87     603.00
123.97     663.87
124.07     619.00
124.17     623.88
124.27     639.00
124.37     594.00
124.47     618.39
124.57     607.00
124.67     615.00
124.77     633.41
124.87     549.00
124.97     566.00
