  9.97     575.00
 10.07     570.00
 10.17     597.53
 10.27     556.00
 10.37     588.43
 10.47     559.00
 10.57     570.86
 10.67     543.00
 10.77     604.01
 10.87     524.85
 10.97     533.35
 11.07     622.00
 11.17     606.64
 11.27     570.00
 11.37     597.15
 11.47     530.32
 11.57     618.96
 11.67     535.71
 11.77     602.00
 11.87     634.00
 11.97     678.00
 12.07     664.00
 12.17     676.00
 12.27     691.00
 12.37     700.52
 12.47     617.29
 12.57     604.09
 12.67     606.00
 12.77     604.00
 12.87     610.89
 12.97     595.00
 13.07     533.00
 13.17     586.88
 13.27     585.00
 13.37     550.61
 13.47     553.79
 13.57     541.00
 13.67     552.94
 13.77     559.00
 13.87     547.00
 13.97     569.00
 14.07     570.00
 14.17     548.00
 14.27     554.00
 14.37     539.00
 14.47     586.00
 14.57     558.00
 14.67     556.00
 14.77     520.00
 14.87     588.87
 14.97     535.00
 15.07     610.30
 15.17     529.70
 15.27     548.00
 15.37     588.63
 15.47     572.00
 15.57     529.22
 15.67     565.00
 15.77     549.38
 15.87     572.62
 15.97     592.63
 16.07     548.00
 16.17     583.06
 16.27     589.21
 16.37     599.09
 16.47     576.00
 16.57     588.00
 16.67     511.00
 16.77     542.00
 16.87     560.00
 16.97     543.00
 17.07     548.00
 17.17     570.20
 17.27     538.00
 17.37     581.00
 17.47     566.00
 17.57     550.00
 17.67     543.98
 17.77     587.00
 17.87     535.36
 17.97     525.22
 18.07     543.00
 18.17     548.23
 18.27     523.28
 18.37     607.00
 18.47     556.00
 18.57     562.77
 18.67     602.85
 18.77     603.00
 18.87     553.00
 18.97     554.00
 19.07     564.00
 19.17     536.85
 19.27     542.29
 19.37     554.00
 19.47     590.00
 19.57     594.21
 19.67     536.00
 19.77     543.00
 19.87     571.95
 19.97     584.00
 20.07     592.00
 20.17     567.00
 20.27     569.39
 20.37     557.25
 20.47     591.00
 20.57     531.30
 20.67     543.69
 20.77     555.58
 20.87     511.62
 20.97     520.94
 21.07     535.12
 21.17     537.00
 21.27     538.51
 21.37     546.85
 21.47     590.21
 21.57     553.00
 21.67     572.00
 21.77     562.00
 21.87     543.00
 21.97     565.24
 22.07     590.45
 22.17     581.12
 22.27     534.00
 22.37     588.89
 22.47     513.65
 22.57     546.00
 22.67     598.96
 22.77     507.26
 22.87     528.00
 22.97     534.00
 23.07     502.00
 23.17     541.00
 23.27     518.27
 23.37     560.00
 23.47     559.00
 23.57     557.00
 23.67     546.58
 23.77     537.00
 23.87     564.00
 23.97     553.00
 24.07     582.60
 24.17     594.85
 24.27     567.16
 24.37     584.87
 24.47     621.00
 24.57     618.25
 24.67     601.00
 24.77     657.00
 24.87     644.00
 24.97     624.00
 25.07     637.67
 25.17     569.11
 25.27     512.41
 25.37     533.00
 25.47     565.00
 25.57     529.38
 25.67     564.00
 25.77     535.00
 25.87     523.00
 25.97     577.60
 26.07     586.00
 26.17     561.00
 26.27     553.00
 26.37     549.06
 26.47     546.00
 26.57     516.00
 26.67     505.85
 26.77     527.00
 26.87     553.00
 26.97     582.00
 27.07     556.00
 27.17     581.81
 27.27     577.00
 27.37     511.00
 27.47     555.00
 27.57     543.12
 27.67     585.00
 27.77     601.00
 27.87     615.00
 27.97     676.00
 28.07     783.00
 28.17     859.90
 28.27     972.00
 28.37     900.00
 28.47     808.00
 28.57     718.52
 28.67     650.00
 28.77     734.00
 28.87     842.74
 28.97     901.63
 29.07     771.89
 29.17     687.00
 29.27     652.00
 29.37     584.52
 29.47     625.00
 29.57     581.00
 29.67     603.00
 29.77     582.00
 29.87     567.00
 29.97     594.16
 30.07     580.64
 30.17     579.00
 30.27     492.00
 30.37     586.00
 30.47     590.00
 30.57     525.28
 30.67     583.00
 30.77     630.00
 30.87     651.72
 30.97     617.00
 31.07     624.10
 31.17     589.00
 31.27     548.00
 31.37     512.99
 31.47     515.37
 31.57     525.89
 31.67     569.00
 31.77     559.00
 31.87     531.00
 31.97     548.00
 32.07     559.00
 32.17     564.00
 32.27     513.00
 32.37     500.17
 32.47     504.51
 32.57     552.00
 32.67     511.00
 32.77     544.00
 32.87     587.00
 32.97     541.00
 33.07     580.00
 33.17     540.00
 33.27     574.00
 33.37     571.28
 33.47     584.00
 33.57     583.80
 33.67     694.00
 33.77     741.91
 33.87     915.00
 33.97     983.00
 34.07    1036.13
 34.17    1054.00
 34.27     920.35
 34.37     711.24
 34.47     689.46
 34.57     603.00
 34.67     538.00
 34.77     576.94
 34.87     571.00
 34.97     524.00
 35.07     522.00
 35.17     520.00
 35.27     505.00
 35.37     494.72
 35.47     554.00
 35.57     532.86
 35.67     502.23
 35.77     521.21
 35.87     511.00
 35.97     475.00
 36.07     532.00
 36.17     540.00
 36.27     527.92
 36.37     558.24
 36.47     483.66
 36.57     488.00
 36.67     470.69
 36.77     454.00
 36.87     492.54
 36.97     483.00
 37.07     533.49
 37.17     503.00
 37.27     565.00
 37.37     478.00
 37.47     526.00
 37.57     501.00
 37.67     498.62
 37.77     549.00
 37.87     481.30
 37.97     549.00
 38.07     512.00
 38.17     538.00
 38.27     488.00
 38.37     480.95
 38.47     500.97
 38.57     460.00
 38.67     485.74
 38.77     546.00
 38.87     522.98
 38.97     522.00
 39.07     523.00
 39.17     486.00
 39.27     503.00
 39.37     465.55
 39.47     473.00
 39.57     480.00
 39.67     529.70
 39.77     475.00
 39.87     519.00
 39.97     509.00
 40.07     490.00
 40.17     510.00
 40.27     507.14
 40.37     473.00
 40.47     547.00
 40.57     476.00
 40.67     476.72
 40.77     506.00
 40.87     526.00
 40.97     477.00
 41.07     498.00
 41.17     490.00
 41.27     479.51
 41.37     523.40
 41.47     524.62
 41.57     544.93
 41.67     466.74
 41.77     477.65
 41.87     495.00
 41.97     531.96
 42.07     484.00
 42.17     540.60
 42.27     502.22
 42.37     531.45
 42.47     591.00
 42.57     594.00
 42.67     635.21
 42.77     554.00
 42.87     605.00
 42.97     593.00
 43.07     540.04
 43.17     550.00
 43.27     525.00
 43.37     492.42
 43.47     496.00
 43.57     535.00
 43.67     494.00
 43.77     519.00
 43.87     487.41
 43.97     516.00
 44.07     515.00
 44.17     502.00
 44.27     506.04
 44.37     540.00
 44.47     485.94
 44.57     495.00
 44.67     508.00
 44.77     534.00
 44.87     510.00
 44.97     516.00
 45.07     491.60
 45.17     494.00
 45.27     519.00
 45.37     528.01
 45.47     506.09
 45.57     483.00
 45.67     490.00
 45.77     509.00
 45.87     510.00
 45.97     516.00
 46.07     469.47
 46.17     507.00
 46.27     516.67
 46.37     464.00
 46.47     526.00
 46.57     476.00
 46.67     509.00
 46.77     497.57
 46.87     498.00
 46.97     530.00
 47.07     513.07
 47.17     525.76
 47.27     543.00
 47.37     567.00
 47.47     504.00
 47.57     574.00
 47.67     569.00
 47.77     622.00
 47.87     573.00
 47.97     627.32
 48.07     550.39
 48.17     620.00
 48.27     539.00
 48.37     536.00
 48.47     508.00
 48.57     533.00
 48.67     552.00
 48.77     534.26
 48.87     522.74
 48.97     586.00
 49.07     534.00
 49.17     564.00
 49.27     607.00
 49.37     652.25
 49.47     681.00
 49.57     813.00
 49.67     833.00
 49.77    1074.18
 49.87    1412.00
 49.97    1920.00
 50.07    2276.00
 50.17    2502.00
 50.27    2478.00
 50.37    2251.03
 50.47    1795.69
 50.57    1398.88
 50.67    1135.86
 50.77     907.07
 50.87     692.00
 50.97     623.00
 51.07     681.00
 51.17     595.41
 51.27     619.38
 51.37     602.43
 51.47     560.00
 51.57     595.00
 51.67     538.00
 51.77     541.85
 51.87     546.00
 51.97     563.00
 52.07     506.30
 52.17     564.00
 52.27     574.00
 52.37     539.65
 52.47     573.88
 52.57     583.78
 52.67     566.00
 52.77     642.00
 52.87     647.00
 52.97     716.28
 53.07     828.06
 53.17     905.00
 53.27    1029.00
 53.37    1097.66
 53.47    1216.00
 53.57    1166.21
 53.67    1114.00
 53.77    1029.00
 53.87     887.00
 53.97     780.00
 54.07     657.24
 54.17     617.17
 54.27     633.00
 54.37     591.00
 54.47     563.17
 54.57     507.14
 54.67     591.00
 54.77     527.58
 54.87     527.82
 54.97     584.00
 55.07     556.00
 55.17     573.00
 55.27     581.00
 55.37     531.00
 55.47     576.00
 55.57     593.00
 55.67     581.00
 55.77     570.00
 55.87     562.00
 55.97     639.00
 56.07     724.60
 56.17     736.61
 56.27     887.00
 56.37    1115.00
 56.47    1535.00
 56.57    1771.00
 56.67    2192.00
 56.77    2432.00
 56.87    2698.27
 56.97    2567.00
 57.07    2462.48
 57.17    2084.00
 57.27    1741.00
 57.37    1250.00
 57.47    1063.00
 57.57     888.65
 57.67     790.00
 57.77     658.92
 57.87     672.00
 57.97     646.29
 58.07     663.00
 58.17     678.76
 58.27     773.00
 58.37     904.97
 58.47     986.51
 58.57    1047.06
 58.67    1233.52
 58.77    1293.00
 58.87    1452.38
 58.97    1467.82
 59.07    1439.34
 59.17    1517.00
 59.27    1337.73
 59.37    1245.51
 59.47    1243.00
 59.57    1196.00
 59.67    1137.35
 59.77    1157.00
 59.87    1245.00
 59.97    1351.00
 60.07    1343.24
 60.17    1584.00
 60.27    1663.00
 60.37    1481.27
 60.47    1365.47
 60.57    1174.59
 60.67    1059.00
 60.77     892.00
 60.87     805.00
 60.97     756.60
 61.07     688.00
 61.17     613.00
 61.27     600.94
 61.37     605.64
 61.47     651.74
 61.57     715.55
 61.67     876.87
 61.77     945.00
 61.87    1085.00
 61.97    1298.04
 62.07    1373.02
 62.17    1476.11
 62.27    1369.50
 62.37    1255.00
 62.47    1117.00
 62.57    1032.00
 62.67     945.72
 62.77     795.00
 62.87     658.71
 62.97     684.25
 63.07     549.00
 63.17     601.00
 63.27     594.40
 63.37     578.00
 63.47     614.00
 63.57     570.29
 63.67     603.83
 63.77     609.00
 63.87     576.35
 63.97     670.44
 64.07     697.00
 64.17     745.00
 64.27     931.00
 64.37     955.00
 64.47     957.00
 64.57     989.91
 64.67    1042.00
 64.77    1005.00
 64.87     959.00
 64.97     926.00
 65.07     833.00
 65.17     767.61
 65.27     753.00
 65.37     695.00
 65.47     642.00
 65.57     617.00
 65.67     611.00
 65.77     564.00
 65.87     559.00
 65.97     495.00
 66.07     546.00
 66.17     588.64
 66.27     604.96
 66.37     564.78
 66.47     552.53
 66.57     544.00
 66.67     598.93
 66.77     557.00
 66.87     602.00
 66.97     633.00
 67.07     675.80
 67.17     687.00
 67.27     750.00
 67.37     912.26
 67.47    1075.00
 67.57    1295.00
 67.67    1577.61
 67.77    1777.63
 67.87    2080.00
 67.97    2245.47
 68.07    2473.48
 68.17    2460.00
 68.27    2309.00
 68.37    2156.70
 68.47    1866.34
 68.57    1483.30
 68.67    1270.00
 68.77     999.56
 68.87     860.00
 68.97     754.78
 69.07     791.00
 69.17     618.00
 69.27     620.73
 69.37     615.00
 69.47     593.23
 69.57     571.00
 69.67     605.00
 69.77     551.00
 69.87     625.00
 69.97     539.00
 70.07     592.85
 70.17     582.69
 70.27     596.00
 70.37     618.00
 70.47     544.00
 70.57     569.00
 70.67     583.00
 70.77     542.38
 70.87     570.00
 70.97     636.00
 71.07     673.00
 71.17     691.74
 71.27     822.00
 71.37     906.00
 71.47    1096.00
 71.57    1203.00
 71.67    1453.00
 71.77    1577.00
 71.87    1794.85
 71.97    1868.00
 72.07    1943.00
 72.17    1780.00
 72.27    1764.00
 72.37    1558.46
 72.47    1449.88
 72.57    1330.00
 72.67    1092.49
 72.77    1022.00
 72.87     951.57
 72.97     881.74
 73.07     740.00
 73.17     704.00
 73.27     726.37
 73.37     639.44
 73.47     628.38
 73.57     621.00
 73.67     588.44
 73.77     639.27
 73.87     612.00
 73.97     610.00
 74.07     588.00
 74.17     596.00
 74.27     631.00
 74.37     580.00
 74.47     595.66
 74.57     592.33
 74.67     633.00
 74.77     654.00
 74.87     630.00
 74.97     604.00
 75.07     568.45
 75.17     569.25
 75.27     613.00
 75.37     593.00
 75.47     549.46
 75.57     533.00
 75.67     557.48
 75.77     580.64
 75.87     621.28
 75.97     597.98
 76.07     600.86
 76.17     668.00
 76.27     653.00
 76.37     683.00
 76.47     713.00
 76.57     704.22
 76.67     675.00
 76.77     663.00
 76.87     663.00
 76.97     636.00
 77.07     645.00
 77.17     603.00
 77.27     590.00
 77.37     526.13
 77.47     547.00
 77.57     558.68
 77.67     565.29
 77.77     498.99
 77.87     550.89
 77.97     517.00
 78.07     514.22
 78.17     506.00
 78.27     542.00
 78.37     517.00
 78.47     503.00
 78.57     518.00
 78.67     515.28
 78.77     522.00
 78.87     503.26
 78.97     550.61
 79.07     483.00
 79.17     525.00
 79.27     525.00
 79.37     518.96
 79.47     544.47
 79.57     567.00
 79.67     519.00
 79.77     549.00
 79.87     533.49
 79.97     540.00
 80.07     600.14
 80.17     537.00
 80.27     539.00
 80.37     548.77
 80.47     627.38
 80.57     575.93
 80.67     632.00
 80.77     647.00
 80.87     699.54
 80.97     712.00
 81.07     737.00
 81.17     776.62
 81.27     751.00
 81.37     744.35
 81.47     807.43
 81.57     752.00
 81.67     773.00
 81.77     726.00
 81.87     734.00
 81.97     684.00
 82.07     683.40
 82.17     695.41
 82.27     645.00
 82.37     669.83
 82.47     593.00
 82.57     586.00
 82.67     564.00
 82.77     595.00
 82.87     586.00
 82.97     488.00
 83.07     513.00
 83.17     548.00
 83.27     520.00
 83.37     556.00
 83.47     529.00
 83.57     597.19
 83.67     549.00
 83.77     599.00
 83.87     576.00
 83.97     578.00
 84.07     535.66
 84.17     530.50
 84.27     610.47
 84.37     537.00
 84.47     548.00
 84.57     599.17
 84.67     533.00
 84.77     563.17
 84.87     542.00
 84.97     569.00
 85.07     549.00
 85.17     562.98
 85.27     526.00
 85.37     495.97
 85.47     513.00
 85.57     560.71
 85.67     552.00
 85.77     498.00
 85.87     524.00
 85.97     555.30
 86.07     526.00
 86.17     558.93
 86.27     494.00
 86.37     515.00
 86.47     545.00
 86.57     549.42
 86.67     603.64
 86.77     626.08
 86.87     587.00
 86.97     579.00
 87.07     573.17
 87.17     664.22
 87.27     687.00
 87.37     689.00
 87.47     683.00
 87.57     635.00
 87.67     632.32
 87.77     656.38
 87.87     621.00
 87.97     628.00
 88.07     655.00
 88.17     612.00
 88.27     539.56
 88.37     585.00
 88.47     581.00
 88.57     595.00
 88.67     524.00
 88.77     559.46
 88.87     564.00
 88.97     584.07
 89.07     595.00
 89.17     614.75
 89.27     581.00
 89.37     614.00
 89.47     642.23
 89.57     597.00
 89.67     543.00
 89.77     576.00
 89.87     537.95
 89.97     553.00
 90.07     534.00
 90.17     557.00
 90.27     531.00
 90.37     575.05
 90.47     517.32
 90.57     520.00
 90.67     528.00
 90.77     534.00
 90.87     533.00
 90.97     485.00
 91.07     532.00
 91.17     506.00
 91.27     517.00
 91.37     567.26
 91.47     515.00
 91.57     529.08
 91.67     527.85
 91.77     528.34
 91.87     527.00
 91.97     556.00
 92.07     575.32
 92.17     583.00
 92.27     598.00
 92.37     606.00
 92.47     580.60
 92.57     646.00
 92.67     667.00
 92.77     655.64
 92.87     791.00
 92.97     663.00
 93.07     755.00
 93.17     786.00
 93.27     771.09
 93.37     817.07
 93.47     849.00
 93.57     827.00
 93.67     818.38
 93.77     878.00
 93.87     834.38
 93.97     881.13
 94.07     818.00
 94.17     799.00
 94.27     795.71
 94.37     817.85
 94.47     931.00
 94.57     844.77
 94.67     891.00
 94.77     913.65
 94.87     839.60
 94.97     887.00
 95.07     913.00
 95.17     913.00
 95.27     860.00
 95.37     754.67
 95.47     805.00
 95.57     808.00
 95.67     707.28
 95.77     720.00
 95.87     715.00
 95.97     708.00
 96.07     651.72
 96.17     732.30
 96.27     753.74
 96.37     770.00
 96.47     778.00
 96.57     873.42
 96.67     966.22
 96.77    1057.00
 96.87    1102.89
 96.97    1180.91
 97.07    1203.73
 97.17    1278.00
 97.27    1361.00
 97.37    1336.00
 97.47    1378.80
 97.57    1368.10
 97.67    1478.53
 97.77    1339.00
 97.87    1391.00
 97.97    1239.00
 98.07    1211.00
 98.17    1160.00
 98.27    1055.17
 98.37    1039.00
 98.47     940.00
 98.57     876.25
 98.67     841.00
 98.77     817.00
 98.87     827.00
 98.97     818.00
 99.07     858.46
 99.17     867.00
 99.27     940.86
 99.37     997.00
 99.47    1016.00
 99.57    1110.00
 99.67    1200.00
 99.77    1326.31
 99.87    1393.00
 99.97    1466.04
100.07    1689.00
100.17    1786.00
100.27    1827.42
100.37    1837.00
100.47    1995.71
100.57    2080.00
100.67    2035.69
100.77    2101.35
100.87    2080.37
100.97    2107.00
101.07    1959.00
101.17    1871.00
101.27    1833.49
101.37    1691.57
101.47    1550.00
101.57    1509.93
101.67    1446.12
101.77    1402.93
101.87    1282.00
101.97    1252.00
102.07    1180.00
102.17    1092.00
102.27    1091.00
102.37    1122.01
102.47    1048.94
102.57    1083.00
102.67    1108.28
102.77    1077.36
102.87    1033.00
102.97     979.40
103.07     930.00
103.17     879.00
103.27     844.29
103.37     816.00
103.47     744.00
103.57     764.21
103.67     691.00
103.77     708.00
103.87     675.14
103.97     610.00
104.07     625.00
104.17     538.23
104.27     565.00
104.37     562.35
104.47     583.82
104.57     570.00
104.67     571.00
104.77     542.14
104.87     572.00
104.97     511.00
105.07     556.00
105.17     560.00
105.27     547.00
105.37     547.00
105.47     506.30
105.57     548.00
105.67     572.35
105.77     525.00
105.87     532.07
105.97     566.00
106.07     555.00
106.17     608.00
106.27     628.22
106.37     596.00
106.47     614.00
106.57     565.00
106.67     629.00
106.77     677.25
106.87     614.00
106.97     621.00
107.07     711.43
107.17     664.00
107.27     723.09
107.37     744.75
107.47     675.00
107.57     748.24
107.67     674.62
107.77     659.00
107.87     696.00
107.97     738.25
108.07     638.00
108.17     690.00
108.27     719.00
108.37     631.00
108.47     694.00
108.57     649.75
108.67     682.00
108.77     711.40
108.87     677.00
108.97     715.00
109.07     663.00
109.17     702.00
109.27     687.24
109.37     653.00
109.47     597.00
109.57     626.00
109.67     628.00
109.77     617.00
109.87     614.00
109.97     596.00
110.07     634.00
110.17     586.00
110.27     610.00
110.37     603.00
110.47     573.00
110.57     499.04
110.67     558.00
110.77     588.00
110.87     549.21
110.97     527.00
111.07     530.61
111.17     506.67
111.27     581.00
111.37     499.67
111.47     552.00
111.57     541.00
111.67     514.00
111.77     526.02
111.87     511.00
111.97     521.00
112.07     537.00
112.17     578.00
112.27     641.00
112.37     584.00
112.47     552.00
112.57     668.00
112.67     597.00
112.77     636.70
112.87     654.00
112.97     640.00
113.07     640.00
113.17     678.00
113.27     712.00
113.37     728.00
113.47     752.00
113.57     831.00
113.67     790.00
113.77     790.95
113.87     909.39
113.97     889.41
114.07     942.94
114.17    1040.00
114.27    1027.00
114.37    1195.00
114.47    1292.00
114.57    1322.00
114.67    1564.00
114.77    1648.34
114.87    1910.00
114.97    2093.00
115.07    2485.00
115.17    2583.00
115.27    2799.05
115.37    3040.00
115.47    3470.00
115.57    3779.00
115.67    4066.00
115.77    4471.00
115.87    4805.00
115.97    5172.00
116.07    5675.00
116.17    5837.00
116.27    6353.35
116.37    6575.00
116.47    6696.00
116.57    6932.72
116.67    6988.00
116.77    6923.04
116.87    6634.19
116.97    6609.00
117.07    6417.00
117.17    6004.00
117.27    5792.33
117.37    5272.00
117.47    4950.00
117.57    4562.00
117.67    4341.00
117.77    4019.00
117.87    3472.00
117.97    3270.63
118.07    2913.00
118.17    2550.00
118.27    2247.93
118.37    2040.21
118.47    1807.00
118.57    1571.00
118.67    1499.42
118.77    1259.00
118.87    1122.00
118.97    1095.00
119.07    1026.00
119.17     901.00
119.27     800.78
119.37     825.00
119.47     816.00
119.57     706.00
119.67     662.00
119.77     622.03
119.87     623.50
119.97     597.64
120.07     605.00
120.17     601.00
120.27     576.50
120.37     591.00
120.47     590.00
120.57     528.00
120.67     536.00
120.77     530.00
120.87     575.00
120.97     544.00
121.07     569.00
121.17     555.03
121.27     617.08
121.37     565.00
121.47     617.75
121.57     610.00
121.67     563.05
121.77     559.61
121.87     566.00
121.97     615.00
122.07     592.04
122.17     606.00
122.27     578.00
122.37     636.00
122.47     672.73
122.57     640.00
122.67     695.00
122.77     659.00
122.87     667.27
122.97     646.00
123.07     650.76
123.17     601.73
123.27     614.00
123.37     661.00
123.47     576.00
123.57     666.21
123.67     624.00
123.77     585.95
123.87     636.69
123.97     650.00
124.07     615.67
124.17     634.00
124.27     649.80
124.37     590.00
124.47     637.00
124.57     611.00
124.67     571.43
124.77     573.00
124.87     594.00
124.97     634.00
