  9.97     628.76
 10.07     668.00
 10.17     676.67
 10.27     670.00
 10.37     645.00
 10.47     684.00
 10.57     696.00
 10.67     644.28
 10.77     645.00
 10.87     619.88
 10.97     658.00
 11.07     627.00
 11.17     583.00
 11.27     692.00
 11.37     603.14
 11.47     671.65
 11.57     700.00
 11.67     650.00
 11.77     678.56
 11.87     731.00
 11.97     702.00
 12.07     780.00
 12.17     789.00
 12.27     809.15
 12.37     788.00
 12.47     722.00
 12.57     711.00
 12.67     632.93
 12.77     632.00
 12.87     662.00
 12.97     654.74
 13.07     653.50
 13.17     657.00
 13.27     625.87
 13.37     600.00
 13.47     592.79
 13.57     688.21
 13.67     614.00
 13.77     617.00
 13.87     599.00
 13.97     655.35
 14.07     682.55
 14.17     684.47
 14.27     598.00
 14.37     636.00
 14.47     652.00
 14.57     585.30
 14.67     621.08
 14.77     619.00
 14.87     598.57
 14.97     579.00
 15.07     623.00
 15.17     664.00
 15.27     602.00
 15.37     638.00
 15.47     627.00
 15.57     618.00
 15.67     629.30
 15.77     609.00
 15.87     607.00
 15.97     604.00
 16.07     652.00
 16.17     567.00
 16.27     623.23
 16.37     602.00
 16.47     669.00
 16.57     617.00
 16.67     586.88
 16.77     647.00
 16.87     631.00
 16.97     659.80
 17.07     618.00
 17.17     641.77
 17.27     619.42
 17.37     644.00
 17.47     622.00
 17.57     576.00
 17.67     590.41
 17.77     665.00
 17.87     622.00
 17.97     602.00
 18.07     635.57
 18.17     631.68
 18.27     582.62
 18.37     621.60
 18.47     632.50
 18.57     619.00
 18.67     623.00
 18.77     603.00
 18.87     565.00
 18.97     564.00
 19.07     658.00
 19.17     598.62
 19.27     581.98
 19.37     640.62
 19.47     573.00
 19.57     584.00
 19.67     604.00
 19.77     562.00
 19.87     561.00
 19.97     614.00
 20.07     570.52
 20.17     657.93
 20.27     557.00
 20.37     582.13
 20.47     571.07
 20.57     582.00
 20.67     568.78
 20.77     577.00
 20.87     612.00
 20.97     599.00
 21.07     583.00
 21.17     644.93
 21.27     580.00
 21.37     597.00
 21.47     622.00
 21.57     610.00
 21.67     591.00
 21.77     562.24
 21.87     575.26
 21.97     537.00
 22.07     604.00
 22.17     644.72
 22.27     574.09
 22.37     595.00
 22.47     603.68
 22.57     628.03
 22.67     613.00
 22.77     633.00
 22.87     583.00
 22.97     598.00
 23.07     613.00
 23.17     614.00
 23.27     556.43
 23.37     600.00
 23.47     583.00
 23.57     596.00
 23.67     603.00
 23.77     611.00
 23.87     583.00
 23.97     611.06
 24.07     623.82
 24.17     596.98
 24.27     600.00
 24.37     622.00
 24.47     642.81
 24.57     658.00
 24.67     673.78
 24.77     704.83
 24.87     674.00
 24.97     680.93
 25.07     713.00
 25.17     670.00
 25.27     664.59
 25.37     606.87
 25.47     589.28
 25.57     626.00
 25.67     625.00
 25.77     593.00
 25.87     693.00
 25.97     584.32
 26.07     568.00
 26.17     657.00
 26.27     656.00
 26.37     630.00
 26.47     650.00
 26.57     570.25
 26.67     564.58
 26.77     630.00
 26.87     659.53
 26.97     629.00
 27.07     688.00
 27.17     641.00
 27.27     694.00
 27.37     681.38
 27.47     713.00
 27.57     654.37
 27.67     688.78
 27.77     788.43
 27.87     856.71
 27.97    1161.36
 28.07    1389.00
 28.17    1902.00
 28.27    2649.78
 28.37    3036.00
 28.47    2901.35
 28.57    2584.00
 28.67    1985.00
 28.77    1729.40
 28.87    1723.38
 28.97    1877.00
 29.07    1917.00
 29.17    1884.61
 29.27    1630.00
 29.37    1313.00
 29.47    1056.00
 29.57     947.00
 29.67     810.00
 29.77     798.00
 29.87     738.00
 29.97     745.00
 30.07     747.00
 30.17     670.00
 30.27     713.00
 30.37     717.00
 30.47     660.24
 30.57     694.00
 30.67     666.00
 30.77     691.00
 30.87     731.00
 30.97     688.65
 31.07     703.52
 31.17     760.00
 31.27     709.00
 31.37     720.00
 31.47     638.00
 31.57     628.00
 31.67     606.83
 31.77     547.80
 31.87     613.00
 31.97     634.00
 32.07     619.00
 32.17     582.00
 32.27     621.00
 32.37     620.00
 32.47     596.73
 32.57     599.00
 32.67     613.00
 32.77     611.00
 32.87     612.37
 32.97     658.00
 33.07     628.77
 33.17     580.00
 33.27     631.00
 33.37     595.00
 33.47     563.71
 33.57     578.23
 33.67     616.25
 33.77     667.00
 33.87     756.90
 33.97     866.00
 34.07     942.34
 34.17    1104.11
 34.27    1075.00
 34.37    1028.00
 34.47     956.08
 34.57     780.17
 34.67     655.00
 34.77     636.00
 34.87     657.00
 34.97     580.25
 35.07     547.61
 35.17     638.11
 35.27     588.13
 35.37     616.91
 35.47     562.00
 35.57     542.00
 35.67     587.15
 35.77     524.00
 35.87     550.00
 35.97     610.70
 36.07     562.00
 36.17     530.00
 36.27     551.00
 36.37     557.00
 36.47     598.03
 36.57     577.40
 36.67     570.00
 36.77     550.00
 36.87     542.00
 36.97     521.00
 37.07     521.00
 37.17     550.00
 37.27     575.00
 37.37     597.07
 37.47     601.00
 37.57     584.00
 37.67     528.00
 37.77     600.71
 37.87     567.23
 37.97     628.00
 38.07     582.97
 38.17     579.16
 38.27     625.50
 38.37     607.64
 38.47     597.00
 38.57     569.00
 38.67     558.00
 38.77     564.37
 38.87     597.07
 38.97     544.00
 39.07     593.11
 39.17     526.00
 39.27     517.64
 39.37     575.88
 39.47     564.00
 39.57     509.39
 39.67     549.36
 39.77     577.00
 39.87     508.75
 39.97     591.55
 40.07     580.00
 40.17     531.69
 40.27     529.03
 40.37     559.47
 40.47     524.00
 40.57     537.00
 40.67     524.00
 40.77     510.11
 40.87     555.71
 40.97     526.00
 41.07     476.00
 41.17     526.00
 41.27     582.56
 41.37     543.00
 41.47     557.00
 41.57     587.16
 41.67     551.98
 41.77     527.12
 41.87     540.00
 41.97     552.00
 42.07     589.00
 42.17     515.00
 42.27     547.00
 42.37     556.00
 42.47     572.63
 42.57     566.00
 42.67     580.00
 42.77     589.00
 42.87     609.00
 42.97     571.00
 43.07     638.46
 43.17     614.00
 43.27     597.00
 43.37     634.24
 43.47     558.00
 43.57     573.00
 43.67     559.00
 43.77     540.00
 43.87     544.00
 43.97     556.00
 44.07     596.89
 44.17     527.00
 44.27     584.43
 44.37     544.00
 44.47     512.00
 44.57     575.00
 44.67     561.10
 44.77     559.00
 44.87     515.67
 44.97     548.00
 45.07     566.25
 45.17     579.78
 45.27     543.00
 45.37     542.00
 45.47     551.00
 45.57     523.40
 45.67     537.00
 45.77     559.00
 45.87     556.00
 45.97     582.00
 46.07     531.67
 46.17     522.11
 46.27     585.00
 46.37     574.00
 46.47     547.00
 46.57     536.00
 46.67     565.73
 46.77     582.95
 46.87     534.21
 46.97     601.00
 47.07     588.00
 47.17     547.00
 47.27     557.00
 47.37     526.49
 47.47     541.16
 47.57     522.00
 47.67     577.30
 47.77     573.00
 47.87     613.00
 47.97     684.00
 48.07     658.29
 48.17     635.00
 48.27     681.82
 48.37     649.00
 48.47     621.89
 48.57     647.34
 48.67     589.86
 48.77     607.00
 48.87     565.00
 48.97     622.20
 49.07     546.48
 49.17     610.45
 49.27     555.00
 49.37     628.00
 49.47     640.87
 49.57     621.96
 49.67     689.00
 49.77     779.00
 49.87     905.00
 49.97    1126.00
 50.07    1395.00
 50.17    1778.00
 50.27    2241.97
 50.37    2459.00
 50.47    2615.00
 50.57    2486.00
 50.67    2189.00
 50.77    1777.87
 50.87    1369.00
 50.97    1010.00
 51.07     981.81
 51.17     775.00
 51.27     753.00
 51.37     703.00
 51.47     685.60
 51.57     656.00
 51.67     655.00
 51.77     672.00
 51.87     654.00
 51.97     584.00
 52.07     645.00
 52.17     633.00
 52.27     626.65
 52.37     625.00
 52.47     656.72
 52.57     623.00
 52.67     581.04
 52.77     616.00
 52.87     625.95
 52.97     644.00
 53.07     635.94
 53.17     743.00
 53.27     780.00
 53.37     879.00
 53.47     970.00
 53.57    1033.65
 53.67    1202.00
 53.77    1181.75
 53.87    1175.00
 53.97    1156.00
 54.07    1062.00
 54.17    1016.00
 54.27     872.23
 54.37     802.00
 54.47     699.00
 54.57     671.00
 54.67     675.00
 54.77     694.00
 54.87     667.95
 54.97     680.00
 55.07     625.00
 55.17     565.60
 55.27     623.00
 55.37     609.00
 55.47     607.00
 55.57     633.00
 55.67     639.00
 55.77     668.76
 55.87     676.46
 55.97     672.69
 56.07     695.00
 56.17     673.00
 56.27     739.27
 56.37     806.00
 56.47     962.68
 56.57    1099.00
 56.67    1357.00
 56.77    1584.00
 56.87    1918.00
 56.97    2156.00
 57.07    2481.00
 57.17    2591.00
 57.27    2491.00
 57.37    2292.00
 57.47    1953.00
 57.57    1704.00
 57.67    1418.00
 57.77    1146.00
 57.87    1003.00
 57.97     855.31
 58.07     810.65
 58.17     795.00
 58.27     752.00
 58.37     793.29
 58.47     735.97
 58.57     856.00
 58.67     829.02
 58.77     914.00
 58.87    1074.00
 58.97    1142.18
 59.07    1190.63
 59.17    1167.00
 59.27    1245.00
 59.37    1329.00
 59.47    1285.00
 59.57    1202.29
 59.67    1170.28
 59.77    1177.00
 59.87    1134.00
 59.97    1143.50
 60.07    1206.00
 60.17    1292.00
 60.27    1423.00
 60.37    1525.00
 60.47    1611.00
 60.57    1629.00
 60.67    1542.00
 60.77    1462.00
 60.87    1349.00
 60.97    1131.00
 61.07     996.00
 61.17     891.91
 61.27     811.00
 61.37     822.02
 61.47     754.20
 61.57     777.00
 61.67     809.00
 61.77     840.31
 61.87     872.00
 61.97     988.07
 62.07    1093.00
 62.17    1103.00
 62.27    1293.80
 62.37    1373.00
 62.47    1383.71
 62.57    1429.00
 62.67    1337.00
 62.77    1257.00
 62.87    1175.30
 62.97    1062.92
 63.07     980.84
 63.17     733.00
 63.27     713.00
 63.37     709.00
 63.47     666.69
 63.57     644.00
 63.67     700.00
 63.77     691.44
 63.87     600.12
 63.97     644.00
 64.07     706.09
 64.17     739.00
 64.27     704.23
 64.37     739.00
 64.47     884.06
 64.57     952.00
 64.67    1058.00
 64.77    1105.00
 64.87    1158.00
 64.97    1102.98
 65.07    1214.00
 65.17    1190.00
 65.27    1132.00
 65.37    1079.24
 65.47    1006.59
 65.57     879.00
 65.67     891.72
 65.77     795.00
 65.87     729.00
 65.97     766.49
 66.07     690.00
 66.17     677.00
 66.27     671.00
 66.37     645.00
 66.47     664.00
 66.57     610.00
 66.67     627.38
 66.77     633.00
 66.87     661.47
 66.97     661.00
 67.07     687.01
 67.17     623.88
 67.27     695.70
 67.37     720.00
 67.47     755.36
 67.57     857.00
 67.67     923.00
 67.77    1067.00
 67.87    1259.53
 67.97    1501.86
 68.07    1757.74
 68.17    1973.00
 68.27    2125.28
 68.37    2289.22
 68.47    2422.00
 68.57    2398.00
 68.67    2215.00
 68.77    2096.00
 68.87    1735.00
 68.97    1577.00
 69.07    1337.00
 69.17    1085.00
 69.27     996.41
 69.37     945.09
 69.47     871.00
 69.57     805.25
 69.67     660.00
 69.77     661.00
 69.87     675.00
 69.97     671.00
 70.07     659.00
 70.17     643.00
 70.27     624.88
 70.37     609.46
 70.47     644.00
 70.57     654.00
 70.67     609.19
 70.77     626.00
 70.87     654.00
 70.97     657.00
 71.07     682.00
 71.17     715.00
 71.27     680.00
 71.37     749.00
 71.47     747.39
 71.57     854.73
 71.67     974.61
 71.77    1122.00
 71.87    1208.00
 71.97    1368.00
 72.07    1509.00
 72.17    1692.00
 72.27    1813.00
 72.37    1859.00
 72.47    1857.00
 72.57    1812.83
 72.67    1756.00
 72.77    1578.20
 72.87    1415.72
 72.97    1257.00
 73.07    1209.00
 73.17     996.00
 73.27     873.00
 73.37     867.03
 73.47     808.82
 73.57     711.00
 73.67     702.00
 73.77     708.00
 73.87     684.68
 73.97     647.00
 74.07     635.02
 74.17     589.82
 74.27     592.47
 74.37     598.17
 74.47     611.00
 74.57     574.85
 74.67     650.00
 74.77     640.00
 74.87     680.00
 74.97     671.00
 75.07     648.00
 75.17     655.00
 75.27     666.00
 75.37     645.00
 75.47     661.00
 75.57     688.00
 75.67     555.35
 75.77     633.00
 75.87     620.00
 75.97     622.00
 76.07     625.76
 76.17     593.57
 76.27     677.00
 76.37     706.00
 76.47     726.00
 76.57     744.02
 76.67     766.00
 76.77     786.00
 76.87     790.00
 76.97     799.00
 77.07     836.13
 77.17     814.00
 77.27     747.74
 77.37     790.00
 77.47     650.00
 77.57     643.64
 77.67     648.10
 77.77     646.00
 77.87     574.00
 77.97     617.14
 78.07     640.64
 78.17     553.00
 78.27     584.20
 78.37     588.00
 78.47     553.00
 78.57     606.63
 78.67     558.00
 78.77     561.00
 78.87     603.70
 78.97     550.28
 79.07     566.00
 79.17     518.00
 79.27     618.00
 79.37     571.45
 79.47     580.62
 79.57     508.00
 79.67     557.00
 79.77     548.00
 79.87     527.99
 79.97     534.07
 80.07     564.00
 80.17     603.00
 80.27     563.00
 80.37     599.00
 80.47     621.00
 80.57     637.14
 80.67     675.76
 80.77     681.00
 80.87     737.00
 80.97     777.00
 81.07     794.77
 81.17     836.00
 81.27     859.95
 81.37     980.00
 81.47     897.58
 81.57     942.00
 81.67     964.00
 81.77     919.36
 81.87     984.00
 81.97     898.00
 82.07     863.41
 82.17     830.62
 82.27     877.85
 82.37     793.00
 82.47     790.00
 82.57     733.00
 82.67     710.26
 82.77     695.00
 82.87     722.41
 82.97     614.80
 83.07     636.00
 83.17     535.00
 83.27     602.00
 83.37     584.00
 83.47     596.00
 83.57     585.00
 83.67     594.00
 83.77     554.00
 83.87     597.00
 83.97     573.28
 84.07     625.37
 84.17     597.00
 84.27     613.70
 84.37     643.00
 84.47     663.93
 84.57     563.80
 84.67     626.00
 84.77     602.00
 84.87     566.77
 84.97     589.21
 85.07     550.00
 85.17     570.00
 85.27     589.00
 85.37     523.00
 85.47     578.69
 85.57     574.58
 85.67     576.00
 85.77     557.00
 85.87     551.33
 85.97     547.00
 86.07     549.00
 86.17     571.19
 86.27     579.00
 86.37     599.00
 86.47     623.00
 86.57     588.74
 86.67     599.05
 86.77     582.00
 86.87     549.00
 86.97     569.00
 87.07     635.00
 87.17     614.00
 87.27     621.00
 87.37     616.53
 87.47     664.00
 87.57     644.00
 87.67     706.00
 87.77     632.31
 87.87     700.00
 87.97     650.00
 88.07     609.86
 88.17     687.00
 88.27     656.00
 88.37     680.00
 88.47     593.58
 88.57     640.79
 88.67     632.00
 88.77     584.00
 88.87     567.00
 88.97     610.00
 89.07     581.62
 89.17     655.00
 89.27     620.00
 89.37     609.00
 89.47     657.08
 89.57     630.00
 89.67     610.00
 89.77     609.59
 89.87     575.88
 89.97     583.00
 90.07     643.75
 90.17     593.65
 90.27     597.00
 90.37     657.96
 90.47     586.00
 90.57     586.00
 90.67     604.00
 90.77     553.00
 90.87     613.68
 90.97     525.84
 91.07     571.87
 91.17     491.00
 91.27     573.48
 91.37     544.00
 91.47     473.00
 91.57     577.00
 91.67     551.03
 91.77     551.00
 91.87     579.97
 91.97     532.00
 92.07     529.00
 92.17     556.00
 92.27     567.00
 92.37     538.32
 92.47     567.46
 92.57     600.00
 92.67     564.00
 92.77     583.00
 92.87     617.32
 92.97     582.00
 93.07     630.00
 93.17     663.00
 93.27     703.00
 93.37     694.91
 93.47     718.00
 93.57     745.35
 93.67     788.46
 93.77     808.96
 93.87     782.00
 93.97     768.25
 94.07     814.00
 94.17     813.00
 94.27     848.00
 94.37     895.00
 94.47     832.79
 94.57     906.00
 94.67     868.00
 94.77     927.00
 94.87     922.76
 94.97     929.00
 95.07     918.00
 95.17     962.00
 95.27     919.65
 95.37     944.00
 95.47     933.00
 95.57     960.00
 95.67     958.00
 95.77     931.64
 95.87     864.00
 95.97     784.34
 96.07     797.00
 96.17     789.01
 96.27     793.00
 96.37     759.00
 96.47     782.12
 96.57     790.00
 96.67     717.00
 96.77     772.03
 96.87     819.00
 96.97     778.92
 97.07     868.06
 97.17     930.63
 97.27    1019.00
 97.37    1092.19
 97.47    1104.00
 97.57    1149.43
 97.67    1341.81
 97.77    1393.00
 97.87    1410.00
 97.97    1481.00
 98.07    1560.77
 98.17    1532.00
 98.27    1422.63
 98.37    1518.00
 98.47    1569.00
 98.57    1345.00
 98.67    1370.00
 98.77    1301.00
 98.87    1213.00
 98.97    1129.50
 99.07    1104.00
 99.17    1028.00
 99.27     998.00
 99.37     916.00
 99.47     900.17
 99.57     946.00
 99.67     883.01
 99.77     899.78
 99.87    1002.32
 99.97    1105.00
100.07    1100.00
100.17    1264.00
100.27    1284.93
100.37    1295.00
100.47    1380.19
100.57    1487.00
100.67    1587.00
100.77    1628.64
100.87    1860.00
100.97    1900.81
101.07    1865.23
101.17    1962.00
101.27    1982.00
101.37    2028.00
101.47    1969.00
101.57    1976.62
101.67    1940.00
101.77    1970.00
101.87    1954.00
101.97    1840.00
102.07    1631.00
102.17    1734.07
102.27    1601.00
102.37    1452.00
102.47    1437.00
102.57    1392.51
102.67    1347.00
102.77    1235.00
102.87    1267.00
102.97    1261.00
103.07    1131.00
103.17    1208.63
103.27    1142.00
103.37    1147.00
103.47    1032.00
103.57    1037.00
103.67    1032.00
103.77    1011.00
103.87     960.00
103.97     885.67
104.07     845.00
104.17     856.34
104.27     781.00
104.37     745.14
104.47     735.00
104.57     707.00
104.67     706.00
104.77     663.88
104.87     685.67
104.97     648.00
105.07     616.48
105.17     567.67
105.27     632.00
105.37     643.00
105.47     612.00
105.57     585.00
105.67     550.28
105.77     569.00
105.87     528.62
105.97     569.00
106.07     589.00
106.17     605.00
106.27     550.95
106.37     551.29
106.47     565.00
106.57     582.96
106.67     582.08
106.77     601.04
106.87     624.00
106.97     668.00
107.07     680.00
107.17     652.00
107.27     625.00
107.37     645.00
107.47     686.25
107.57     665.00
107.67     654.77
107.77     713.09
107.87     729.00
107.97     682.75
108.07     742.00
108.17     695.10
108.27     749.22
108.37     703.00
108.47     691.70
108.57     711.00
108.67     703.00
108.77     701.00
108.87     724.00
108.97     701.20
109.07     700.00
109.17     671.62
109.27     776.00
109.37     705.00
109.47     664.00
109.57     721.00
109.67     697.00
109.77     732.98
109.87     750.00
109.97     731.92
110.07     719.00
110.17     649.89
110.27     720.00
110.37     736.17
110.47     650.00
110.57     612.19
110.67     677.49
110.77     628.00
110.87     677.00
110.97     623.00
111.07     561.69
111.17     597.02
111.27     616.52
111.37     575.34
111.47     627.00
111.57     568.46
111.67     525.45
111.77     539.00
111.87     555.00
111.97     576.00
112.07     614.00
112.17     567.00
112.27     562.94
112.37     586.00
112.47     526.01
112.57     560.00
112.67     559.00
112.77     574.00
112.87     580.62
112.97     598.00
113.07     564.07
113.17     581.00
113.27     577.48
113.37     589.00
113.47     646.92
113.57     565.00
113.67     598.00
113.77     609.00
113.87     616.00
113.97     610.41
114.07     657.00
114.17     699.84
114.27     713.68
114.37     660.00
114.47     675.42
114.57     741.19
114.67     836.00
114.77     822.00
114.87     877.00
114.97     948.10
115.07    1056.00
115.17    1075.00
115.27    1216.52
115.37    1439.00
115.47    1497.17
115.57    1800.07
115.67    2035.00
115.77    2248.00
115.87    2513.00
115.97    2778.00
116.07    2944.95
116.17    3348.00
116.27    3731.00
116.37    4090.00
116.47    4465.00
116.57    4776.38
116.67    5249.47
116.77    5555.00
116.87    5803.17
116.97    6272.00
117.07    6617.00
117.17    6828.00
117.27    7045.00
117.37    7049.40
117.47    7375.45
117.57    7044.28
117.67    7145.00
117.77    6933.00
117.87    6699.00
117.97    6483.00
118.07    6089.57
118.17    5615.00
118.27    5537.00
118.37    5239.14
118.47    4698.48
118.57    4362.00
118.67    4091.00
118.77    3572.86
118.87    3268.09
118.97    3062.00
119.07    2684.00
119.17    2561.65
119.27    2192.49
119.37    1994.00
119.47    1770.13
119.57    1646.00
119.67    1502.26
119.77    1381.00
119.87    1272.00
119.97    1226.31
120.07    1059.00
120.17    1029.00
120.27     974.00
120.37     890.00
120.47     891.00
120.57     845.00
120.67     846.98
120.77     820.51
120.87     755.00
120.97     709.00
121.07     715.00
121.17     687.00
121.27     683.00
121.37     685.00
121.47     720.46
121.57     617.00
121.67     670.56
121.77     659.64
121.87     635.00
121.97     689.54
122.07     591.00
122.17     668.00
122.27     580.00
122.37     658.07
122.47     666.07
122.57     640.00
122.67     661.00
122.77     611.11
122.87     662.15
122.97     673.00
123.07     645.00
123.17     665.00
123.27     643.00
123.37     720.29
123.47     682.30
123.57     715.00
123.67     658.00
123.77     704.21
123.87     653.54
123.97     720.00
124.07     724.42
124.17     687.32
124.27     672.00
124.37     649.37
124.47     685.00
124.57     665.30
124.67     705.00
124.77     714.53
124.87     667.00
124.97     677.00
