  9.97     779.00
 10.07     781.00
 10.17     760.00
 10.27     708.00
 10.37     701.69
 10.47     787.00
 10.57     709.39
 10.67     748.07
 10.77     736.00
 10.87     732.02
 10.97     772.25
 11.07     723.00
 11.17     741.00
 11.27     745.00
 11.37     741.51
 11.47     731.94
 11.57     786.00
 11.67     754.29
 11.77     786.00
 11.87     741.61
 11.97     842.00
 12.07     781.00
 12.17     896.00
 12.27     886.89
 12.37     806.38
 12.47     854.00
 12.57     736.00
 12.67     768.00
 12.77     686.00
 12.87     714.02
 12.97     662.00
 13.07     766.16
 13.17     717.00
 13.27     667.00
 13.37     653.00
 13.47     756.39
 13.57     715.00
 13.67     714.00
 13.77     659.72
 13.87     672.00
 13.97     739.91
 14.07     672.38
 14.17     733.00
 14.27     734.57
 14.37     680.00
 14.47     728.00
 14.57     651.06
 14.67     731.17
 14.77     704.72
 14.87     649.56
 14.97     719.45
 15.07     679.00
 15.17     657.00
 15.27     646.00
 15.37     674.00
 15.47     660.00
 15.57     673.31
 15.67     728.26
 15.77     650.00
 15.87     749.00
 15.97     708.00
 16.07     692.00
 16.17     646.38
 16.27     670.00
 16.37     667.00
 16.47     698.00
 16.57     632.08
 16.67     650.00
 16.77     652.00
 16.87     667.00
 16.97     669.59
 17.07     699.00
 17.17     615.00
 17.27     668.00
 17.37     645.47
 17.47     623.00
 17.57     684.74
 17.67     672.00
 17.77     650.00
 17.87     629.00
 17.97     661.00
 18.07     652.00
 18.17     631.41
 18.27     694.67
 18.37     709.23
 18.47     678.00
 18.57     691.10
 18.67     681.00
 18.77     704.00
 18.87     712.00
 18.97     614.38
 19.07     629.15
 19.17     652.00
 19.27     669.97
 19.37     643.00
 19.47     652.00
 19.57     623.00
 19.67     703.41
 19.77     626.90
 19.87     598.00
 19.97     631.00
 20.07     686.30
 20.17     686.00
 20.27     684.00
 20.37     649.00
 20.47     619.48
 20.57     660.00
 20.67     666.00
 20.77     647.00
 20.87     618.26
 20.97     617.00
 21.07     618.00
 21.17     605.00
 21.27     634.00
 21.37     631.74
 21.47     646.00
 21.57     643.00
 21.67     605.00
 21.77     642.00
 21.87     607.31
 21.97     657.00
 22.07     618.85
 22.17     649.00
 22.27     636.00
 22.37     613.00
 22.47     673.59
 22.57     691.85
 22.67     618.00
 22.77     633.00
 22.87     608.59
 22.97     597.91
 23.07     670.00
 23.17     667.31
 23.27     643.00
 23.37     643.00
 23.47     656.00
 23.57     666.00
 23.67     623.00
 23.77     679.89
 23.87     630.77
 23.97     602.26
 24.07     666.79
 24.17     604.27
 24.27     670.00
 24.37     598.00
 24.47     655.00
 24.57     714.00
 24.67     693.00
 24.77     691.00
 24.87     726.23
 24.97     704.00
 25.07     727.00
 25.17     756.48
 25.27     696.00
 25.37     691.00
 25.47     652.31
 25.57     637.00
 25.67     686.00
 25.77     643.00
 25.87     651.00
 25.97     665.00
 26.07     678.00
 26.17     634.27
 26.27     701.00
 26.37     706.00
 26.47     669.00
 26.57     703.00
 26.67     645.00
 26.77     652.00
 26.87     689.00
 26.97     671.71
 27.07     736.00
 27.17     683.00
 27.27     770.06
 27.37     755.61
 27.47     771.00
 27.57     816.00
 27.67     791.00
 27.77     888.00
 27.87    1083.00
 27.97    1410.68
 28.07    1938.00
 28.17    3451.77
 28.27    5541.31
 28.37    7805.00
 28.47    9166.00
 28.57    8881.00
 28.67    6830.21
 28.77    4980.00
 28.87    4055.56
 28.97    4109.00
 29.07    4702.00
 29.17    5173.00
 29.27    4853.70
 29.37    3897.14
 29.47    2595.00
 29.57    1847.00
 29.67    1326.00
 29.77    1115.00
 29.87     963.62
 29.97     938.00
 30.07     831.00
 30.17     756.72
 30.27     779.00
 30.37     775.23
 30.47     771.00
 30.57     681.61
 30.67     773.00
 30.77     742.00
 30.87     726.00
 30.97     726.76
 31.07     805.00
 31.17     852.00
 31.27     823.12
 31.37     769.00
 31.47     771.00
 31.57     677.79
 31.67     663.48
 31.77     709.00
 31.87     709.00
 31.97     606.12
 32.07     633.33
 32.17     634.94
 32.27     647.00
 32.37     651.00
 32.47     688.63
 32.57     681.00
 32.67     601.00
 32.77     677.39
 32.87     658.35
 32.97     628.00
 33.07     653.80
 33.17     658.00
 33.27     676.00
 33.37     628.00
 33.47     611.73
 33.57     690.63
 33.67     717.00
 33.77     690.02
 33.87     744.00
 33.97     834.80
 34.07     923.11
 34.17    1106.96
 34.27    1217.96
 34.37    1320.00
 34.47    1282.00
 34.57    1084.39
 34.67    1016.00
 34.77     893.55
 34.87     740.83
 34.97     724.28
 35.07     666.00
 35.17     652.00
 35.27     670.00
 35.37     652.90
 35.47     659.00
 35.57     608.67
 35.67     628.70
 35.77     653.00
 35.87     605.37
 35.97     643.00
 36.07     608.00
 36.17     587.79
 36.27     662.00
 36.37     632.28
 36.47     641.00
 36.57     612.00
 36.67     622.81
 36.77     611.00
 36.87     628.00
 36.97     606.53
 37.07     644.00
 37.17     645.51
 37.27     628.00
 37.37     588.35
 37.47     645.92
 37.57     650.00
 37.67     646.00
 37.77     688.00
 37.87     649.00
 37.97     661.00
 38.07     733.78
 38.17     746.00
 38.27     800.00
 38.37     780.00
 38.47     848.61
 38.57     774.62
 38.67     694.93
 38.77     686.54
 38.87     692.00
 38.97     672.00
 39.07     593.11
 39.17     612.86
 39.27     584.20
 39.37     670.47
 39.47     654.36
 39.57     584.50
 39.67     609.00
 39.77     642.15
 39.87     567.00
 39.97     600.00
 40.07     623.00
 40.17     625.08
 40.27     557.00
 40.37     659.11
 40.47     589.87
 40.57     615.00
 40.67     618.00
 40.77     597.00
 40.87     593.00
 40.97     605.98
 41.07     623.00
 41.17     636.64
 41.27     603.00
 41.37     602.72
 41.47     603.99
 41.57     648.00
 41.67     624.00
 41.77     617.33
 41.87     640.00
 41.97     650.21
 42.07     586.25
 42.17     611.00
 42.27     634.00
 42.37     584.03
 42.47     626.00
 42.57     662.18
 42.67     644.00
 42.77     593.00
 42.87     656.95
 42.97     688.47
 43.07     713.00
 43.17     754.42
 43.27     673.00
 43.37     684.95
 43.47     658.00
 43.57     629.00
 43.67     612.00
 43.77     616.94
 43.87     665.00
 43.97     606.54
 44.07     630.00
 44.17     672.00
 44.27     644.00
 44.37     604.00
 44.47     623.00
 44.57     650.00
 44.67     629.93
 44.77     616.94
 44.87     612.00
 44.97     640.00
 45.07     652.00
 45.17     604.00
 45.27     616.89
 45.37     620.00
 45.47     655.00
 45.57     575.33
 45.67     607.00
 45.77     586.37
 45.87     613.00
 45.97     628.00
 46.07     595.00
 46.17     644.00
 46.27     631.00
 46.37     649.00
 46.47     629.06
 46.57     615.00
 46.67     672.00
 46.77     623.64
 46.87     591.04
 46.97     629.00
 47.07     619.00
 47.17     684.00
 47.27     673.00
 47.37     636.78
 47.47     658.71
 47.57     626.00
 47.67     594.00
 47.77     656.00
 47.87     693.72
 47.97     676.30
 48.07     712.00
 48.17     687.00
 48.27     683.71
 48.37     748.00
 48.47     668.00
 48.57     690.00
 48.67     659.84
 48.77     654.00
 48.87     673.00
 48.97     637.63
 49.07     647.57
 49.17     686.06
 49.27     665.66
 49.37     649.00
 49.47     706.70
 49.57     689.00
 49.67     688.00
 49.77     738.00
 49.87     835.00
 49.97     941.00
 50.07    1114.00
 50.17    1437.00
 50.27    2000.26
 50.37    2463.00
 50.47    2935.84
 50.57    3302.82
 50.67    3171.00
 50.77    3043.00
 50.87    2574.00
 50.97    2086.85
 51.07    1592.00
 51.17    1248.86
 51.27    1030.00
 51.37     909.00
 51.47     867.00
 51.57     751.07
 51.67     767.00
 51.77     720.81
 51.87     757.00
 51.97     733.39
 52.07     781.00
 52.17     700.00
 52.27     757.00
 52.37     767.00
 52.47     682.00
 52.57     725.04
 52.67     741.00
 52.77     693.00
 52.87     720.00
 52.97     701.00
 53.07     726.14
 53.17     712.27
 53.27     819.00
 53.37     821.00
 53.47     891.93
 53.57     892.00
 53.67     985.00
 53.77    1181.00
 53.87    1306.44
 53.97    1330.00
 54.07    1345.00
 54.17    1300.00
 54.27    1191.82
 54.37    1089.00
 54.47    1045.16
 54.57     964.00
 54.67     812.00
 54.77     729.00
 54.87     775.00
 54.97     734.00
 55.07     716.00
 55.17     736.00
 55.27     745.00
 55.37     747.00
 55.47     672.00
 55.57     703.00
 55.67     653.84
 55.77     729.55
 55.87     674.00
 55.97     726.00
 56.07     744.00
 56.17     749.00
 56.27     742.74
 56.37     782.00
 56.47     864.54
 56.57     954.99
 56.67     979.00
 56.77    1146.84
 56.87    1425.00
 56.97    1749.00
 57.07    2008.00
 57.17    2397.00
 57.27    2620.00
 57.37    2691.00
 57.47    2650.15
 57.57    2507.00
 57.67    2226.00
 57.77    1878.00
 57.87    1568.83
 57.97    1220.00
 58.07    1091.65
 58.17     986.00
 58.27     918.00
 58.37     863.00
 58.47     824.00
 58.57     815.00
 58.67     881.00
 58.77     898.22
 58.87     938.70
 58.97    1019.00
 59.07    1109.96
 59.17    1162.43
 59.27    1333.00
 59.37    1365.93
 59.47    1392.00
 59.57    1401.27
 59.67    1396.50
 59.77    1368.00
 59.87    1352.00
 59.97    1323.00
 60.07    1196.69
 60.17    1247.00
 60.27    1310.00
 60.37    1369.00
 60.47    1526.00
 60.57    1586.00
 60.67    1582.16
 60.77    1689.00
 60.87    1650.00
 60.97    1484.00
 61.07    1369.00
 61.17    1246.00
 61.27    1092.00
 61.37    1033.47
 61.47     930.00
 61.57     892.00
 61.67     846.83
 61.77     882.00
 61.87     880.00
 61.97     874.00
 62.07    1062.23
 62.17    1202.00
 62.27    1354.00
 62.37    1463.00
 62.47    1676.64
 62.57    1795.00
 62.67    1892.00
 62.77    1879.00
 62.87    1816.00
 62.97    1715.00
 63.07    1587.65
 63.17    1283.00
 63.27    1166.00
 63.37    1062.00
 63.47     956.50
 63.57     890.00
 63.67     884.00
 63.77     736.00
 63.87     809.40
 63.97     818.00
 64.07     747.00
 64.17     760.00
 64.27     807.00
 64.37     785.00
 64.47     835.00
 64.57     872.38
 64.67    1032.00
 64.77    1166.00
 64.87    1171.25
 64.97    1367.00
 65.07    1470.34
 65.17    1589.87
 65.27    1698.00
 65.37    1624.00
 65.47    1678.00
 65.57    1554.00
 65.67    1539.00
 65.77    1218.00
 65.87    1198.00
 65.97    1100.54
 66.07     924.00
 66.17     932.00
 66.27     903.86
 66.37     793.00
 66.47     809.22
 66.57     712.00
 66.67     759.46
 66.77     655.00
 66.87     781.58
 66.97     664.00
 67.07     696.00
 67.17     671.00
 67.27     707.00
 67.37     742.00
 67.47     729.00
 67.57     742.00
 67.67     837.00
 67.77     862.47
 67.87    1004.00
 67.97    1037.00
 68.07    1283.00
 68.17    1539.60
 68.27    1775.64
 68.37    1973.00
 68.47    2178.00
 68.57    2502.29
 68.67    2526.20
 68.77    2612.65
 68.87    2515.00
 68.97    2369.00
 69.07    2114.00
 69.17    1964.00
 69.27    1636.00
 69.37    1333.00
 69.47    1169.68
 69.57    1102.00
 69.67    1008.00
 69.77     908.00
 69.87     924.00
 69.97     731.49
 70.07     749.00
 70.17     836.00
 70.27     784.00
 70.37     691.53
 70.47     742.87
 70.57     762.00
 70.67     775.00
 70.77     731.00
 70.87     703.65
 70.97     707.56
 71.07     710.00
 71.17     685.00
 71.27     704.17
 71.37     781.39
 71.47     761.00
 71.57     782.00
 71.67     818.33
 71.77     932.38
 71.87    1001.33
 71.97    1036.00
 72.07    1247.13
 72.17    1363.00
 72.27    1562.31
 72.37    1649.00
 72.47    1779.80
 72.57    1884.00
 72.67    1961.54
 72.77    2047.00
 72.87    2053.90
 72.97    1863.66
 73.07    1691.00
 73.17    1486.09
 73.27    1386.00
 73.37    1204.74
 73.47    1069.00
 73.57    1003.00
 73.67     903.00
 73.77     857.00
 73.87     757.11
 73.97     753.69
 74.07     719.00
 74.17     700.80
 74.27     694.00
 74.37     713.00
 74.47     743.00
 74.57     691.00
 74.67     649.00
 74.77     711.00
 74.87     697.00
 74.97     695.00
 75.07     700.00
 75.17     749.59
 75.27     701.00
 75.37     675.16
 75.47     761.00
 75.57     744.18
 75.67     693.00
 75.77     701.00
 75.87     734.00
 75.97     704.00
 76.07     714.00
 76.17     707.00
 76.27     692.44
 76.37     721.24
 76.47     777.63
 76.57     828.00
 76.67     845.00
 76.77     934.00
 76.87     910.11
 76.97     918.00
 77.07     968.28
 77.17    1084.00
 77.27    1077.00
 77.37    1098.00
 77.47    1131.00
 77.57    1035.57
 77.67     986.00
 77.77     979.26
 77.87     943.00
 77.97     847.66
 78.07     749.00
 78.17     732.00
 78.27     716.65
 78.37     714.54
 78.47     687.00
 78.57     627.00
 78.67     704.00
 78.77     701.00
 78.87     622.96
 78.97     582.00
 79.07     650.00
 79.17     676.00
 79.27     610.00
 79.37     641.00
 79.47     608.31
 79.57     633.00
 79.67     608.00
 79.77     617.00
 79.87     649.11
 79.97     648.75
 80.07     675.00
 80.17     682.00
 80.27     680.77
 80.37     692.01
 80.47     732.00
 80.57     713.00
 80.67     799.81
 80.77     838.66
 80.87     809.00
 80.97     972.00
 81.07     964.00
 81.17    1070.68
 81.27    1179.22
 81.37    1260.00
 81.47    1389.00
 81.57    1495.00
 81.67    1593.00
 81.77    1567.00
 81.87    1554.00
 81.97    1443.77
 82.07    1558.00
 82.17    1436.31
 82.27    1398.00
 82.37    1281.97
 82.47    1279.00
 82.57    1176.00
 82.67    1043.85
 82.77     995.60
 82.87     935.50
 82.97     892.00
 83.07     851.77
 83.17     785.00
 83.27     748.00
 83.37     778.00
 83.47     725.00
 83.57     716.00
 83.67     684.03
 83.77     728.88
 83.87     638.00
 83.97     621.00
 84.07     671.00
 84.17     683.00
 84.27     680.00
 84.37     703.00
 84.47     673.00
 84.57     712.29
 84.67     691.72
 84.77     714.11
 84.87     695.00
 84.97     667.00
 85.07     689.27
 85.17     740.92
 85.27     734.54
 85.37     682.00
 85.47     663.94
 85.57     695.07
 85.67     646.86
 85.77     641.00
 85.87     644.17
 85.97     627.15
 86.07     630.00
 86.17     641.92
 86.27     676.10
 86.37     625.00
 86.47     684.94
 86.57     621.93
 86.67     707.00
 86.77     617.30
 86.87     651.00
 86.97     658.00
 87.07     686.00
 87.17     749.00
 87.27     657.00
 87.37     648.74
 87.47     716.00
 87.57     687.00
 87.67     750.55
 87.77     698.86
 87.87     766.00
 87.97     773.39
 88.07     798.00
 88.17     777.26
 88.27     791.00
 88.37     755.00
 88.47     783.00
 88.57     713.96
 88.67     744.73
 88.77     762.00
 88.87     753.00
 88.97     719.18
 89.07     703.00
 89.17     646.02
 89.27     656.00
 89.37     642.21
 89.47     609.00
 89.57     684.00
 89.67     639.00
 89.77     684.00
 89.87     724.00
 89.97     652.34
 90.07     737.00
 90.17     770.00
 90.27     660.94
 90.37     673.00
 90.47     732.33
 90.57     670.00
 90.67     714.00
 90.77     705.00
 90.87     663.00
 90.97     638.00
 91.07     660.00
 91.17     610.99
 91.27     672.00
 91.37     598.77
 91.47     629.00
 91.57     591.00
 91.67     599.00
 91.77     645.53
 91.87     648.00
 91.97     585.45
 92.07     616.00
 92.17     638.00
 92.27     596.00
 92.37     614.00
 92.47     664.00
 92.57     621.00
 92.67     626.00
 92.77     590.70
 92.87     673.00
 92.97     644.26
 93.07     645.00
 93.17     636.00
 93.27     667.00
 93.37     713.00
 93.47     697.00
 93.57     711.00
 93.67     780.13
 93.77     794.00
 93.87     757.00
 93.97     819.00
 94.07     851.00
 94.17     783.00
 94.27     856.00
 94.37     886.00
 94.47     911.00
 94.57     912.00
 94.67     944.23
 94.77     978.19
 94.87     937.00
 94.97    1007.29
 95.07     974.00
 95.17    1008.00
 95.27    1015.00
 95.37    1054.00
 95.47    1087.00
 95.57    1104.00
 95.67    1162.00
 95.77    1118.00
 95.87    1036.00
 95.97    1003.00
 96.07    1002.00
 96.17    1009.00
 96.27    1022.97
 96.37     895.08
 96.47     947.00
 96.57     917.91
 96.67     868.00
 96.77     833.09
 96.87     861.78
 96.97     882.00
 97.07     816.00
 97.17     857.00
 97.27     910.00
 97.37     928.00
 97.47     933.53
 97.57    1015.00
 97.67    1063.00
 97.77    1160.00
 97.87    1267.08
 97.97    1301.00
 98.07    1419.13
 98.17    1435.81
 98.27    1582.00
 98.37    1552.00
 98.47    1629.00
 98.57    1647.27
 98.67    1567.13
 98.77    1577.91
 98.87    1547.88
 98.97    1514.00
 99.07    1460.00
 99.17    1338.62
 99.27    1383.55
 99.37    1307.16
 99.47    1151.53
 99.57    1163.00
 99.67    1114.00
 99.77    1093.00
 99.87    1069.28
 99.97    1070.00
100.07     978.00
100.17    1062.00
100.27    1128.00
100.37    1142.36
100.47    1178.72
100.57    1253.00
100.67    1363.49
100.77    1375.00
100.87    1507.69
100.97    1645.00
101.07    1612.26
101.17    1713.63
101.27    1779.62
101.37    1857.88
101.47    1989.00
101.57    2091.74
101.67    2107.00
101.77    2188.47
101.87    2140.71
101.97    2118.69
102.07    2111.00
102.17    2216.85
102.27    2103.00
102.37    1956.78
102.47    1890.69
102.57    1948.45
102.67    1834.99
102.77    1734.00
102.87    1690.71
102.97    1582.00
103.07    1538.00
103.17    1464.00
103.27    1466.58
103.37    1365.00
103.47    1314.00
103.57    1382.32
103.67    1229.00
103.77    1296.00
103.87    1227.00
103.97    1289.00
104.07    1188.00
104.17    1143.00
104.27    1069.00
104.37    1067.32
104.47     918.00
104.57     911.06
104.67     910.71
104.77     878.00
104.87     895.85
104.97     789.00
105.07     814.59
105.17     768.00
105.27     813.00
105.37     684.01
105.47     707.00
105.57     662.00
105.67     632.29
105.77     697.00
105.87     667.00
105.97     617.29
106.07     692.00
106.17     642.00
106.27     665.66
106.37     623.52
106.47     635.00
106.57     664.00
106.67     628.00
106.77     695.00
106.87     616.23
106.97     624.36
107.07     684.42
107.17     692.00
107.27     689.78
107.37     710.00
107.47     694.00
107.57     737.59
107.67     729.11
107.77     721.00
107.87     756.00
107.97     808.48
108.07     821.17
108.17     789.09
108.27     800.00
108.37     798.00
108.47     771.00
108.57     838.35
108.67     797.59
108.77     770.00
108.87     751.00
108.97     781.00
109.07     797.00
109.17     764.00
109.27     797.55
109.37     750.00
109.47     762.00
109.57     821.00
109.67     763.39
109.77     832.41
109.87     826.20
109.97     772.88
110.07     757.00
110.17     821.00
110.27     765.00
110.37     787.00
110.47     761.82
110.57     808.00
110.67     854.00
110.77     775.00
110.87     793.00
110.97     743.00
111.07     747.00
111.17     731.00
111.27     785.00
111.37     683.00
111.47     685.00
111.57     692.00
111.67     661.00
111.77     649.00
111.87     665.00
111.97     638.19
112.07     671.34
112.17     674.99
112.27     627.00
112.37     616.28
112.47     659.00
112.57     602.40
112.67     612.00
112.77     631.73
112.87     680.00
112.97     619.00
113.07     651.00
113.17     645.11
113.27     618.00
113.37     652.26
113.47     599.00
113.57     614.67
113.67     648.00
113.77     659.00
113.87     667.00
113.97     677.00
114.07     706.97
114.17     643.00
114.27     733.00
114.37     746.00
114.47     702.00
114.57     685.00
114.67     759.95
114.77     761.98
114.87     751.00
114.97     820.00
115.07     820.00
115.17     801.00
115.27     931.00
115.37     931.00
115.47    1006.00
115.57    1104.00
115.67    1157.00
115.77    1314.00
115.87    1468.84
115.97    1675.00
116.07    1817.00
116.17    2126.00
116.27    2306.00
116.37    2531.30
116.47    2821.00
116.57    2990.35
116.67    3491.76
116.77    3785.68
116.87    4121.00
116.97    4466.00
117.07    4998.46
117.17    5347.95
117.27    5788.00
117.37    6153.00
117.47    6496.93
117.57    6799.60
117.67    7152.27
117.77    7194.00
117.87    7454.46
117.97    7515.35
118.07    7562.00
118.17    7742.00
118.27    7427.00
118.37    7318.00
118.47    7050.32
118.57    6741.00
118.67    6548.00
118.77    6014.00
118.87    5682.00
118.97    5376.00
119.07    5280.53
119.17    4745.52
119.27    4336.01
119.37    4085.59
119.47    3581.00
119.57    3378.98
119.67    3079.00
119.77    2771.76
119.87    2497.88
119.97    2173.17
120.07    1977.00
120.17    1836.00
120.27    1677.00
120.37    1577.00
120.47    1375.40
120.57    1294.00
120.67    1285.18
120.77    1132.06
120.87    1128.00
120.97    1076.41
121.07     980.69
121.17     915.00
121.27     936.86
121.37     832.00
121.47     858.00
121.57     863.00
121.67     748.00
121.77     746.00
121.87     785.00
121.97     754.00
122.07     750.69
122.17     762.00
122.27     724.00
122.37     751.00
122.47     716.40
122.57     765.93
122.67     778.44
122.77     674.00
122.87     703.42
122.97     748.82
123.07     785.83
123.17     695.00
123.27     736.00
123.37     717.16
123.47     818.38
123.57     791.00
123.67     790.16
123.77     771.00
123.87     771.73
123.97     853.00
124.07     792.00
124.17     768.35
124.27     771.22
124.37     751.39
124.47     817.00
124.57     787.00
124.67     862.00
124.77     822.55
124.87     787.34
124.97     844.00
