  9.97     731.00
 10.07     747.37
 10.17     714.96
 10.27     712.00
 10.37     747.48
 10.47     724.19
 10.57     721.00
 10.67     732.00
 10.77     713.00
 10.87     737.00
 10.97     720.99
 11.07     713.00
 11.17     725.00
 11.27     744.00
 11.37     719.26
 11.47     650.92
 11.57     732.00
 11.67     772.00
 11.77     757.00
 11.87     762.60
 11.97     773.00
 12.07     830.00
 12.17     841.00
 12.27     859.00
 12.37     828.00
 12.47     820.00
 12.57     758.00
 12.67     770.01
 12.77     688.00
 12.87     737.10
 12.97     653.24
 13.07     666.00
 13.17     718.77
 13.27     618.00
 13.37     728.39
 13.47     656.00
 13.57     643.38
 13.67     632.00
 13.77     688.00
 13.87     650.00
 13.97     665.00
 14.07     685.00
 14.17     723.00
 14.27     672.66
 14.37     628.00
 14.47     643.36
 14.57     626.00
 14.67     640.00
 14.77     678.20
 14.87     627.86
 14.97     598.00
 15.07     711.17
 15.17     668.48
 15.27     680.67
 15.37     634.26
 15.47     651.00
 15.57     664.00
 15.67     673.00
 15.77     667.00
 15.87     648.00
 15.97     647.40
 16.07     632.11
 16.17     672.00
 16.27     642.68
 16.37     670.00
 16.47     652.00
 16.57     634.00
 16.67     662.00
 16.77     635.00
 16.87     682.42
 16.97     692.34
 17.07     598.00
 17.17     618.81
 17.27     662.32
 17.37     639.90
 17.47     658.00
 17.57     656.00
 17.67     632.00
 17.77     573.00
 17.87     635.00
 17.97     672.86
 18.07     666.62
 18.17     617.00
 18.27     675.00
 18.37     648.24
 18.47     640.00
 18.57     669.00
 18.67     616.00
 18.77     647.00
 18.87     663.75
 18.97     643.55
 19.07     623.00
 19.17     661.28
 19.27     623.00
 19.37     662.00
 19.47     613.00
 19.57     599.00
 19.67     613.18
 19.77     644.06
 19.87     649.15
 19.97     599.00
 20.07     645.00
 20.17     602.87
 20.27     650.00
 20.37     612.00
 20.47     649.72
 20.57     598.15
 20.67     636.00
 20.77     650.00
 20.87     628.66
 20.97     646.05
 21.07     603.00
 21.17     666.92
 21.27     618.78
 21.37     630.00
 21.47     608.43
 21.57     608.00
 21.67     629.00
 21.77     602.45
 21.87     614.00
 21.97     627.00
 22.07     651.00
 22.17     608.00
 22.27     587.57
 22.37     606.85
 22.47     658.00
 22.57     666.69
 22.67     652.30
 22.77     636.00
 22.87     622.91
 22.97     564.00
 23.07     653.13
 23.17     622.37
 23.27     631.15
 23.37     626.00
 23.47     665.36
 23.57     605.18
 23.67     674.80
 23.77     606.00
 23.87     670.73
 23.97     620.75
 24.07     630.12
 24.17     650.00
 24.27     658.49
 24.37     683.00
 24.47     696.00
 24.57     627.00
 24.67     674.00
 24.77     692.00
 24.87     717.00
 24.97     707.00
 25.07     766.00
 25.17     750.08
 25.27     694.99
 25.37     704.00
 25.47     706.00
 25.57     661.00
 25.67     688.72
 25.77     720.00
 25.87     629.26
 25.97     555.00
 26.07     639.00
 26.17     631.54
 26.27     675.07
 26.37     631.00
 26.47     643.00
 26.57     621.00
 26.67     621.63
 26.77     625.73
 26.87     691.09
 26.97     736.00
 27.07     661.00
 27.17     676.00
 27.27     686.00
 27.37     743.00
 27.47     709.00
 27.57     808.00
 27.67     816.00
 27.77     911.00
 27.87     977.78
 27.97    1285.00
 28.07    1963.00
 28.17    3191.00
 28.27    5239.00
 28.37    7621.91
 28.47    8441.00
 28.57    7500.30
 28.67    5753.75
 28.77    4451.00
 28.87    3482.00
 28.97    3733.54
 29.07    4275.00
 29.17    4693.00
 29.27    4269.00
 29.37    3258.66
 29.47    2273.00
 29.57    1576.00
 29.67    1223.00
 29.77     957.33
 29.87     912.50
 29.97     808.45
 30.07     783.00
 30.17     782.74
 30.27     749.00
 30.37     763.00
 30.47     654.00
 30.57     746.00
 30.67     729.91
 30.77     740.00
 30.87     726.00
 30.97     746.00
 31.07     747.00
 31.17     823.00
 31.27     782.00
 31.37     789.00
 31.47     728.00
 31.57     681.43
 31.67     753.00
 31.77     634.20
 31.87     661.00
 31.97     665.00
 32.07     675.00
 32.17     604.00
 32.27     625.00
 32.37     601.35
 32.47     633.80
 32.57     621.00
 32.67     593.36
 32.77     637.00
 32.87     615.26
 32.97     635.28
 33.07     667.00
 33.17     580.87
 33.27     686.00
 33.37     631.00
 33.47     654.00
 33.57     701.00
 33.67     704.00
 33.77     687.00
 33.87     799.00
 33.97     880.57
 34.07     957.00
 34.17    1149.57
 34.27    1218.22
 34.37    1306.00
 34.47    1226.00
 34.57    1113.64
 34.67     904.00
 34.77     795.00
 34.87     750.00
 34.97     679.00
 35.07     680.00
 35.17     635.00
 35.27     659.00
 35.37     614.00
 35.47     607.00
 35.57     645.56
 35.67     632.00
 35.77     613.00
 35.87     625.00
 35.97     565.35
 36.07     589.00
 36.17     614.00
 36.27     607.00
 36.37     635.43
 36.47     646.00
 36.57     626.95
 36.67     629.00
 36.77     636.37
 36.87     571.90
 36.97     594.02
 37.07     622.00
 37.17     619.74
 37.27     628.00
 37.37     604.00
 37.47     624.00
 37.57     642.00
 37.67     578.49
 37.77     661.69
 37.87     668.41
 37.97     672.00
 38.07     757.00
 38.17     739.00
 38.27     709.00
 38.37     788.00
 38.47     752.00
 38.57     728.00
 38.67     702.75
 38.77     651.00
 38.87     608.00
 38.97     605.00
 39.07     598.16
 39.17     571.00
 39.27     575.00
 39.37     612.00
 39.47     578.00
 39.57     611.00
 39.67     579.00
 39.77     570.71
 39.87     585.00
 39.97     603.00
 40.07     576.00
 40.17     606.00
 40.27     573.00
 40.37     620.05
 40.47     612.56
 40.57     598.00
 40.67     618.00
 40.77     576.24
 40.87     602.23
 40.97     631.10
 41.07     580.00
 41.17     601.00
 41.27     587.00
 41.37     607.00
 41.47     621.00
 41.57     615.00
 41.67     592.00
 41.77     636.38
 41.87     604.00
 41.97     613.00
 42.07     597.00
 42.17     616.00
 42.27     587.00
 42.37     616.53
 42.47     629.60
 42.57     623.00
 42.67     632.00
 42.77     627.00
 42.87     675.00
 42.97     666.38
 43.07     763.34
 43.17     665.00
 43.27     661.00
 43.37     675.00
 43.47     667.00
 43.57     583.00
 43.67     559.00
 43.77     651.00
 43.87     656.00
 43.97     574.29
 44.07     587.60
 44.17     586.00
 44.27     573.00
 44.37     593.00
 44.47     568.00
 44.57     588.50
 44.67     567.00
 44.77     571.00
 44.87     587.08
 44.97     602.00
 45.07     646.00
 45.17     587.00
 45.27     556.34
 45.37     592.00
 45.47     610.49
 45.57     656.00
 45.67     626.00
 45.77     571.99
 45.87     574.38
 45.97     635.00
 46.07     664.00
 46.17     619.19
 46.27     570.00
 46.37     592.00
 46.47     570.87
 46.57     598.00
 46.67     606.00
 46.77     586.00
 46.87     598.10
 46.97     585.22
 47.07     601.00
 47.17     560.00
 47.27     606.48
 47.37     578.00
 47.47     608.00
 47.57     571.00
 47.67     582.00
 47.77     597.00
 47.87     595.00
 47.97     639.00
 48.07     655.00
 48.17     635.00
 48.27     690.00
 48.37     720.00
 48.47     760.00
 48.57     647.00
 48.67     621.53
 48.77     642.93
 48.87     657.68
 48.97     603.65
 49.07     636.00
 49.17     645.15
 49.27     582.00
 49.37     635.24
 49.47     609.00
 49.57     645.00
 49.67     701.00
 49.77     743.00
 49.87     863.50
 49.97     916.00
 50.07    1157.00
 50.17    1567.00
 50.27    1975.99
 50.37    2498.48
 50.47    2853.00
 50.57    3217.00
 50.67    3063.00
 50.77    2694.51
 50.87    2376.00
 50.97    1820.00
 51.07    1429.00
 51.17    1064.43
 51.27     933.00
 51.37     848.00
 51.47     824.23
 51.57     808.00
 51.67     698.00
 51.77     726.00
 51.87     772.00
 51.97     658.90
 52.07     675.07
 52.17     717.37
 52.27     722.00
 52.37     690.00
 52.47     678.07
 52.57     675.66
 52.67     624.25
 52.77     624.96
 52.87     663.00
 52.97     713.00
 53.07     701.28
 53.17     745.00
 53.27     745.00
 53.37     776.00
 53.47     799.00
 53.57     916.26
 53.67    1082.31
 53.77    1164.00
 53.87    1256.00
 53.97    1317.54
 54.07    1247.00
 54.17    1193.00
 54.27    1100.49
 54.37    1016.00
 54.47     940.00
 54.57     830.00
 54.67     765.00
 54.77     688.00
 54.87     733.00
 54.97     674.00
 55.07     652.74
 55.17     683.00
 55.27     667.51
 55.37     647.00
 55.47     625.89
 55.57     653.00
 55.67     699.20
 55.77     677.00
 55.87     639.68
 55.97     637.00
 56.07     671.00
 56.17     722.00
 56.27     744.00
 56.37     786.00
 56.47     865.96
 56.57     907.00
 56.67    1030.00
 56.77    1265.00
 56.87    1537.37
 56.97    1770.00
 57.07    2093.00
 57.17    2491.00
 57.27    2669.00
 57.37    2740.00
 57.47    2562.39
 57.57    2353.00
 57.67    2039.00
 57.77    1717.15
 57.87    1399.75
 57.97    1144.00
 58.07    1008.90
 58.17     867.00
 58.27     817.35
 58.37     800.00
 58.47     790.93
 58.57     777.00
 58.67     835.99
 58.77     955.70
 58.87     955.70
 58.97    1036.12
 59.07    1084.00
 59.17    1220.00
 59.27    1313.00
 59.37    1372.78
 59.47    1310.19
 59.57    1415.43
 59.67    1365.51
 59.77    1259.51
 59.87    1322.00
 59.97    1260.00
 60.07    1274.00
 60.17    1219.27
 60.27    1348.00
 60.37    1434.88
 60.47    1525.00
 60.57    1548.23
 60.67    1586.00
 60.77    1556.27
 60.87    1550.00
 60.97    1425.00
 61.07    1337.00
 61.17    1173.00
 61.27    1018.00
 61.37     927.00
 61.47     826.00
 61.57     874.72
 61.67     821.00
 61.77     838.90
 61.87     781.00
 61.97     953.10
 62.07    1092.00
 62.17    1100.00
 62.27    1278.59
 62.37    1520.48
 62.47    1610.58
 62.57    1693.00
 62.67    1829.87
 62.77    1768.00
 62.87    1672.00
 62.97    1604.15
 63.07    1309.65
 63.17    1205.00
 63.27    1008.44
 63.37    1025.00
 63.47     874.00
 63.57     850.00
 63.67     770.00
 63.77     710.00
 63.87     735.00
 63.97     767.00
 64.07     765.59
 64.17     695.65
 64.27     796.00
 64.37     792.00
 64.47     887.38
 64.57     936.00
 64.67    1031.00
 64.77    1078.29
 64.87    1237.00
 64.97    1372.00
 65.07    1521.35
 65.17    1655.00
 65.27    1586.00
 65.37    1587.00
 65.47    1556.00
 65.57    1444.00
 65.67    1282.00
 65.77    1202.00
 65.87    1020.00
 65.97     943.00
 66.07     883.00
 66.17     786.00
 66.27     795.13
 66.37     710.00
 66.47     714.03
 66.57     658.00
 66.67     740.49
 66.77     703.00
 66.87     751.29
 66.97     711.82
 67.07     702.64
 67.17     684.00
 67.27     716.33
 67.37     707.00
 67.47     729.13
 67.57     769.00
 67.67     884.00
 67.77     947.79
 67.87    1044.62
 67.97    1130.00
 68.07    1360.00
 68.17    1542.00
 68.27    1734.00
 68.37    2099.75
 68.47    2363.23
 68.57    2390.29
 68.67    2591.00
 68.77    2584.00
 68.87    2360.97
 68.97    2210.30
 69.07    1970.00
 69.17    1699.00
 69.27    1459.00
 69.37    1217.83
 69.47    1203.00
 69.57     968.46
 69.67     898.50
 69.77     817.06
 69.87     781.70
 69.97     773.00
 70.07     767.00
 70.17     726.32
 70.27     739.00
 70.37     737.00
 70.47     728.00
 70.57     643.97
 70.67     698.65
 70.77     732.00
 70.87     727.00
 70.97     708.00
 71.07     694.00
 71.17     702.10
 71.27     660.00
 71.37     694.00
 71.47     759.91
 71.57     796.00
 71.67     875.02
 71.77     860.00
 71.87     971.00
 71.97    1097.75
 72.07    1254.62
 72.17    1387.13
 72.27    1498.00
 72.37    1803.00
 72.47    1925.00
 72.57    1915.58
 72.67    2073.32
 72.77    2038.05
 72.87    1897.26
 72.97    1746.42
 73.07    1660.23
 73.17    1401.00
 73.27    1201.87
 73.37    1154.00
 73.47     981.00
 73.57     909.00
 73.67     838.29
 73.77     773.00
 73.87     742.00
 73.97     702.89
 74.07     668.01
 74.17     694.00
 74.27     634.00
 74.37     707.00
 74.47     663.00
 74.57     694.00
 74.67     624.00
 74.77     653.00
 74.87     719.58
 74.97     648.00
 75.07     747.00
 75.17     657.00
 75.27     722.00
 75.37     695.00
 75.47     741.00
 75.57     652.00
 75.67     706.00
 75.77     740.00
 75.87     694.00
 75.97     704.00
 76.07     714.00
 76.17     672.13
 76.27     718.00
 76.37     722.00
 76.47     747.00
 76.57     794.36
 76.67     825.00
 76.77     834.57
 76.87     893.47
 76.97     953.00
 77.07    1003.00
 77.17    1055.23
 77.27     984.00
 77.37    1044.63
 77.47     989.43
 77.57     959.00
 77.67     954.58
 77.77     887.00
 77.87     812.00
 77.97     724.00
 78.07     785.90
 78.17     731.31
 78.27     725.55
 78.37     653.00
 78.47     643.00
 78.57     625.00
 78.67     672.00
 78.77     605.00
 78.87     651.79
 78.97     630.00
 79.07     606.00
 79.17     620.00
 79.27     648.52
 79.37     609.00
 79.47     644.00
 79.57     625.00
 79.67     583.00
 79.77     637.00
 79.87     644.00
 79.97     644.91
 80.07     669.59
 80.17     625.00
 80.27     650.00
 80.37     627.43
 80.47     685.00
 80.57     646.00
 80.67     730.97
 80.77     748.34
 80.87     801.29
 80.97     824.28
 81.07    1011.00
 81.17    1092.00
 81.27    1148.00
 81.37    1303.00
 81.47    1334.00
 81.57    1376.29
 81.67    1313.68
 81.77    1386.08
 81.87    1471.02
 81.97    1422.34
 82.07    1504.00
 82.17    1414.00
 82.27    1212.72
 82.37    1223.81
 82.47    1189.00
 82.57    1098.00
 82.67     944.45
 82.77     962.00
 82.87     841.00
 82.97     795.00
 83.07     844.00
 83.17     719.00
 83.27     752.36
 83.37     713.71
 83.47     729.57
 83.57     640.00
 83.67     656.00
 83.77     650.53
 83.87     649.00
 83.97     682.79
 84.07     697.89
 84.17     703.94
 84.27     699.00
 84.37     661.73
 84.47     679.00
 84.57     641.00
 84.67     627.00
 84.77     693.84
 84.87     679.52
 84.97     632.00
 85.07     689.00
 85.17     712.91
 85.27     651.00
 85.37     686.51
 85.47     623.00
 85.57     580.00
 85.67     610.00
 85.77     602.38
 85.87     575.89
 85.97     583.00
 86.07     610.66
 86.17     632.00
 86.27     598.00
 86.37     616.00
 86.47     691.00
 86.57     639.00
 86.67     588.00
 86.77     683.00
 86.87     654.92
 86.97     662.00
 87.07     707.00
 87.17     643.00
 87.27     745.00
 87.37     683.80
 87.47     680.00
 87.57     706.00
 87.67     688.00
 87.77     750.00
 87.87     696.00
 87.97     740.00
 88.07     745.00
 88.17     690.42
 88.27     717.00
 88.37     716.00
 88.47     716.90
 88.57     743.00
 88.67     722.00
 88.77     652.00
 88.87     651.89
 88.97     633.85
 89.07     640.00
 89.17     661.00
 89.27     639.00
 89.37     677.00
 89.47     673.00
 89.57     699.65
 89.67     665.00
 89.77     647.56
 89.87     681.00
 89.97     636.28
 90.07     705.53
 90.17     692.00
 90.27     681.00
 90.37     679.00
 90.47     666.00
 90.57     644.97
 90.67     707.00
 90.77     648.00
 90.87     630.00
 90.97     589.78
 91.07     666.71
 91.17     574.99
 91.27     646.00
 91.37     575.00
 91.47     646.21
 91.57     624.00
 91.67     596.16
 91.77     607.00
 91.87     597.00
 91.97     608.00
 92.07     615.00
 92.17     626.87
 92.27     583.00
 92.37     578.01
 92.47     561.09
 92.57     570.00
 92.67     641.00
 92.77     642.00
 92.87     622.00
 92.97     628.12
 93.07     610.25
 93.17     657.00
 93.27     714.23
 93.37     704.00
 93.47     708.01
 93.57     724.90
 93.67     737.00
 93.77     788.00
 93.87     770.00
 93.97     805.00
 94.07     832.00
 94.17     811.00
 94.27     840.22
 94.37     822.00
 94.47     866.00
 94.57     923.00
 94.67     927.00
 94.77     970.72
 94.87     954.00
 94.97     955.00
 95.07     996.92
 95.17     964.06
 95.27    1076.47
 95.37    1012.00
 95.47    1005.64
 95.57    1071.52
 95.67     987.00
 95.77    1086.00
 95.87    1059.00
 95.97    1016.00
 96.07     997.28
 96.17     965.52
 96.27     950.05
 96.37     936.78
 96.47     814.65
 96.57     878.00
 96.67     813.00
 96.77     807.00
 96.87     818.00
 96.97     800.00
 97.07     862.00
 97.17     821.92
 97.27     910.00
 97.37    1000.00
 97.47    1043.00
 97.57    1058.00
 97.67    1095.71
 97.77    1196.00
 97.87    1258.00
 97.97    1360.00
 98.07    1390.00
 98.17    1444.55
 98.27    1532.00
 98.37    1630.76
 98.47    1583.00
 98.57    1643.54
 98.67    1630.05
 98.77    1618.00
 98.87    1462.40
 98.97    1403.47
 99.07    1348.37
 99.17    1367.11
 99.27    1266.48
 99.37    1202.00
 99.47    1084.41
 99.57    1106.00
 99.67    1046.09
 99.77     997.00
 99.87    1007.00
 99.97     986.00
100.07     977.95
100.17    1083.54
100.27    1074.00
100.37    1136.00
100.47    1124.51
100.57    1219.71
100.67    1430.00
100.77    1418.42
100.87    1584.00
100.97    1628.00
101.07    1742.11
101.17    1736.92
101.27    1836.86
101.37    1902.46
101.47    2029.51
101.57    2073.00
101.67    2140.00
101.77    2132.67
101.87    2160.59
101.97    2111.60
102.07    2097.70
102.17    2104.78
102.27    1961.78
102.37    1933.99
102.47    1849.00
102.57    1739.00
102.67    1705.00
102.77    1612.00
102.87    1535.00
102.97    1555.34
103.07    1449.00
103.17    1399.77
103.27    1388.00
103.37    1416.06
103.47    1342.00
103.57    1231.00
103.67    1246.01
103.77    1246.38
103.87    1175.58
103.97    1117.00
104.07    1154.88
104.17    1078.00
104.27    1023.86
104.37     986.51
104.47     991.86
104.57     926.00
104.67     876.00
104.77     805.00
104.87     805.00
104.97     799.00
105.07     701.94
105.17     701.63
105.27     730.00
105.37     714.00
105.47     663.00
105.57     649.00
105.67     636.00
105.77     647.56
105.87     632.00
105.97     614.27
106.07     616.00
106.17     646.00
106.27     569.79
106.37     567.43
106.47     568.45
106.57     644.85
106.67     644.00
106.77     667.00
106.87     646.00
106.97     616.00
107.07     604.00
107.17     640.63
107.27     711.00
107.37     715.00
107.47     654.51
107.57     658.81
107.67     664.00
107.77     771.02
107.87     729.00
107.97     753.00
108.07     793.00
108.17     793.00
108.27     731.00
108.37     782.00
108.47     745.00
108.57     738.00
108.67     826.00
108.77     816.47
108.87     731.00
108.97     762.63
109.07     767.00
109.17     767.00
109.27     770.00
109.37     773.32
109.47     770.36
109.57     808.11
109.67     731.00
109.77     765.00
109.87     758.00
109.97     792.00
110.07     844.16
110.17     758.00
110.27     827.97
110.37     804.00
110.47     753.00
110.57     747.00
110.67     779.00
110.77     739.00
110.87     750.46
110.97     734.00
111.07     746.24
111.17     718.00
111.27     750.00
111.37     707.00
111.47     589.00
111.57     679.00
111.67     680.00
111.77     650.00
111.87     603.00
111.97     626.78
112.07     604.64
112.17     576.43
112.27     645.00
112.37     618.00
112.47     629.00
112.57     573.43
112.67     620.00
112.77     609.00
112.87     635.68
112.97     638.00
113.07     593.70
113.17     609.00
113.27     605.00
113.37     591.00
113.47     599.00
113.57     662.00
113.67     659.00
113.77     644.00
113.87     657.00
113.97     598.00
114.07     697.52
114.17     643.00
114.27     645.00
114.37     622.00
114.47     699.00
114.57     669.30
114.67     740.00
114.77     765.72
114.87     767.00
114.97     800.00
115.07     789.24
115.17     838.00
115.27     925.00
115.37     996.00
115.47    1024.85
115.57    1239.21
115.67    1317.00
115.77    1415.57
115.87    1603.19
115.97    1759.00
116.07    1963.19
116.17    2230.00
116.27    2401.00
116.37    2703.63
116.47    3058.00
116.57    3328.00
116.67    3565.00
116.77    4076.53
116.87    4522.00
116.97    4861.00
117.07    5229.00
117.17    5743.92
117.27    5909.00
117.37    6412.57
117.47    6594.72
117.57    7140.00
117.67    7247.77
117.77    7327.00
117.87    7576.00
117.97    7632.59
118.07    7584.00
118.17    7260.96
118.27    7202.00
118.37    6951.00
118.47    6527.00
118.57    6414.00
118.67    6174.38
118.77    5660.67
118.87    5290.00
118.97    5009.00
119.07    4604.00
119.17    4270.00
119.27    3981.00
119.37    3657.22
119.47    3330.47
119.57    2929.22
119.67    2644.00
119.77    2443.00
119.87    2206.00
119.97    1981.00
120.07    1790.99
120.17    1624.00
120.27    1551.00
120.37    1411.00
120.47    1273.00
120.57    1225.00
120.67    1077.80
120.77     993.73
120.87     998.94
120.97     909.60
121.07     944.00
121.17     880.83
121.27     841.00
121.37     791.00
121.47     778.00
121.57     745.00
121.67     715.85
121.77     767.46
121.87     713.00
121.97     696.18
122.07     745.57
122.17     719.00
122.27     654.00
122.37     668.54
122.47     672.00
122.57     672.00
122.67     658.00
122.77     699.00
122.87     730.00
122.97     772.34
123.07     699.00
123.17     652.00
123.27     701.00
123.37     768.00
123.47     748.62
123.57     745.00
123.67     733.00
123.77     774.00
123.87     732.43
123.97     769.00
124.07     807.70
124.17     827.00
124.27     753.60
124.37     760.00
124.47     789.13
124.57     823.00
124.67     767.00
124.77     769.19
124.87     830.00
124.97     789.18
