  9.97     658.00
 10.07     561.75
 10.17     594.62
 10.27     617.00
 10.37     547.00
 10.47     596.00
 10.57     592.00
 10.67     650.00
 10.77     616.00
 10.87     634.00
 10.97     609.10
 11.07     626.00
 11.17     587.19
 11.27     588.60
 11.37     604.00
 11.47     674.00
 11.57     636.00
 11.67     625.00
 11.77     631.00
 11.87     678.36
 11.97     610.84
 12.07     724.00
 12.17     674.00
 12.27     659.00
 12.37     662.01
 12.47     662.75
 12.57     649.00
 12.67     604.09
 12.77     614.00
 12.87     631.00
 12.97     550.00
 13.07     553.95
 13.17     596.00
 13.27     577.00
 13.37     594.00
 13.47     555.00
 13.57     583.00
 13.67     607.59
 13.77     619.86
 13.87     633.52
 13.97     587.00
 14.07     556.00
 14.17     586.00
 14.27     604.00
 14.37     590.00
 14.47     615.50
 14.57     595.00
 14.67     556.00
 14.77     579.00
 14.87     622.46
 14.97     545.79
 15.07     557.00
 15.17     590.00
 15.27     592.00
 15.37     534.00
 15.47     552.08
 15.57     600.57
 15.67     586.00
 15.77     515.00
 15.87     547.00
 15.97     524.00
 16.07     567.00
 16.17     604.46
 16.27     554.00
 16.37     617.00
 16.47     534.00
 16.57     576.00
 16.67     613.67
 16.77     558.00
 16.87     599.91
 16.97     581.65
 17.07     608.00
 17.17     566.00
 17.27     569.00
 17.37     567.00
 17.47     627.00
 17.57     632.17
 17.67     516.00
 17.77     561.80
 17.87     641.96
 17.97     535.00
 18.07     642.90
 18.17     566.00
 18.27     579.00
 18.37     614.17
 18.47     551.00
 18.57     568.00
 18.67     546.75
 18.77     598.00
 18.87     570.00
 18.97     594.00
 19.07     577.00
 19.17     565.00
 19.27     589.22
 19.37     561.00
 19.47     562.00
 19.57     551.00
 19.67     613.51
 19.77     536.00
 19.87     520.00
 19.97     562.00
 20.07     597.71
 20.17     587.00
 20.27     564.39
 20.37     575.00
 20.47     611.00
 20.57     552.00
 20.67     532.51
 20.77     560.00
 20.87     549.00
 20.97     590.01
 21.07     535.00
 21.17     630.84
 21.27     561.00
 21.37     612.25
 21.47     592.00
 21.57     566.74
 21.67     540.00
 21.77     552.00
 21.87     535.00
 21.97     538.00
 22.07     567.00
 22.17     564.20
 22.27     614.00
 22.37     571.65
 22.47     581.02
 22.57     610.93
 22.67     554.00
 22.77     531.17
 22.87     594.00
 22.97     587.00
 23.07     571.44
 23.17     535.00
 23.27     565.00
 23.37     553.96
 23.47     521.00
 23.57     564.00
 23.67     618.32
 23.77     584.00
 23.87     581.00
 23.97     623.00
 24.07     579.78
 24.17     600.00
 24.27     618.66
 24.37     592.22
 24.47     633.00
 24.57     659.53
 24.67     639.00
 24.77     609.42
 24.87     627.75
 24.97     676.00
 25.07     650.00
 25.17     617.00
 25.27     641.92
 25.37     632.00
 25.47     597.00
 25.57     627.00
 25.67     588.00
 25.77     601.00
 25.87     552.71
 25.97     556.00
 26.07     524.97
 26.17     646.00
 26.27     621.00
 26.37     607.00
 26.47     559.07
 26.57     611.00
 26.67     645.00
 26.77     636.00
 26.87     593.00
 26.97     595.00
 27.07     533.57
 27.17     645.00
 27.27     624.00
 27.37     661.00
 27.47     612.91
 27.57     609.00
 27.67     648.00
 27.77     640.00
 27.87     686.00
 27.97     709.00
 28.07     718.96
 28.17     812.00
 28.27     918.29
 28.37    1036.00
 28.47     882.51
 28.57     867.12
 28.67     714.17
 28.77     768.00
 28.87     749.88
 28.97     856.37
 29.07     867.00
 29.17     822.00
 29.27     778.00
 29.37     717.00
 29.47     644.00
 29.57     660.00
 29.67     652.00
 29.77     574.52
 29.87     648.00
 29.97     661.00
 30.07     590.00
 30.17     690.00
 30.27     513.49
 30.37     559.08
 30.47     619.00
 30.57     584.00
 30.67     604.00
 30.77     559.88
 30.87     688.00
 30.97     622.78
 31.07     636.00
 31.17     678.00
 31.27     662.00
 31.37     626.00
 31.47     596.00
 31.57     562.00
 31.67     543.60
 31.77     576.62
 31.87     552.95
 31.97     513.32
 32.07     571.99
 32.17     558.77
 32.27     517.05
 32.37     509.39
 32.47     605.00
 32.57     565.00
 32.67     503.01
 32.77     519.95
 32.87     509.04
 32.97     590.00
 33.07     571.00
 33.17     541.02
 33.27     611.00
 33.37     586.00
 33.47     547.45
 33.57     536.00
 33.67     641.88
 33.77     709.00
 33.87     768.00
 33.97     858.00
 34.07     974.26
 34.17    1000.11
 34.27     966.00
 34.37     937.00
 34.47     741.00
 34.57     719.67
 34.67     658.00
 34.77     560.50
 34.87     627.83
 34.97     579.00
 35.07     534.62
 35.17     518.64
 35.27     523.00
 35.37     554.00
 35.47     591.89
 35.57     497.00
 35.67     565.00
 35.77     489.00
 35.87     547.00
 35.97     504.61
 36.07     508.20
 36.17     529.00
 36.27     499.00
 36.37     532.00
 36.47     484.00
 36.57     506.30
 36.67     475.00
 36.77     474.00
 36.87     518.00
 36.97     506.00
 37.07     478.90
 37.17     502.00
 37.27     485.00
 37.37     511.00
 37.47     556.72
 37.57     515.00
 37.67     490.30
 37.77     554.68
 37.87     506.10
 37.97     505.71
 38.07     478.00
 38.17     538.00
 38.27     514.00
 38.37     480.00
 38.47     506.00
 38.57     490.00
 38.67     501.46
 38.77     493.00
 38.87     501.00
 38.97     473.41
 39.07     485.00
 39.17     512.00
 39.27     568.28
 39.37     494.00
 39.47     517.00
 39.57     521.00
 39.67     506.68
 39.77     550.28
 39.87     538.00
 39.97     485.00
 40.07     488.79
 40.17     491.00
 40.27     490.00
 40.37     511.69
 40.47     541.00
 40.57     526.02
 40.67     545.39
 40.77     508.00
 40.87     564.25
 40.97     512.74
 41.07     558.17
 41.17     516.00
 41.27     544.45
 41.37     491.00
 41.47     519.00
 41.57     552.32
 41.67     527.60
 41.77     458.00
 41.87     524.24
 41.97     503.00
 42.07     484.21
 42.17     503.00
 42.27     548.33
 42.37     490.00
 42.47     601.89
 42.57     546.00
 42.67     585.00
 42.77     593.00
 42.87     592.00
 42.97     607.00
 43.07     612.49
 43.17     622.35
 43.27     539.00
 43.37     519.00
 43.47     495.00
 43.57     522.00
 43.67     545.00
 43.77     518.75
 43.87     471.00
 43.97     524.00
 44.07     504.00
 44.17     526.32
 44.27     505.79
 44.37     493.07
 44.47     481.00
 44.57     548.07
 44.67     518.58
 44.77     470.00
 44.87     481.00
 44.97     524.07
 45.07     489.00
 45.17     513.48
 45.27     522.00
 45.37     534.00
 45.47     518.05
 45.57     504.00
 45.67     473.43
 45.77     484.55
 45.87     504.00
 45.97     493.00
 46.07     480.00
 46.17     489.25
 46.27     551.00
 46.37     540.44
 46.47     475.00
 46.57     481.90
 46.67     530.00
 46.77     545.00
 46.87     479.45
 46.97     503.09
 47.07     457.84
 47.17     550.00
 47.27     556.79
 47.37     543.00
 47.47     524.00
 47.57     551.00
 47.67     576.83
 47.77     578.00
 47.87     576.00
 47.97     624.00
 48.07     640.00
 48.17     574.77
 48.27     609.00
 48.37     565.00
 48.47     628.00
 48.57     503.00
 48.67     524.00
 48.77     562.06
 48.87     503.12
 48.97     531.00
 49.07     523.00
 49.17     525.00
 49.27     557.97
 49.37     567.00
 49.47     581.00
 49.57     633.72
 49.67     668.82
 49.77     799.27
 49.87     998.35
 49.97    1268.84
 50.07    1600.00
 50.17    2061.55
 50.27    2200.00
 50.37    2377.55
 50.47    2267.00
 50.57    1934.00
 50.67    1662.32
 50.77    1260.00
 50.87    1023.00
 50.97     820.00
 51.07     794.00
 51.17     731.34
 51.27     680.00
 51.37     662.00
 51.47     656.00
 51.57     564.43
 51.67     584.00
 51.77     584.00
 51.87     549.00
 51.97     591.04
 52.07     573.00
 52.17     579.20
 52.27     506.86
 52.37     559.00
 52.47     582.00
 52.57     573.00
 52.67     589.00
 52.77     614.17
 52.87     584.96
 52.97     631.00
 53.07     639.00
 53.17     719.00
 53.27     830.00
 53.37     929.00
 53.47    1042.00
 53.57    1090.00
 53.67    1151.00
 53.77    1199.00
 53.87    1162.00
 53.97    1042.22
 54.07     912.62
 54.17     792.00
 54.27     758.00
 54.37     672.00
 54.47     573.00
 54.57     609.00
 54.67     574.00
 54.77     623.10
 54.87     634.00
 54.97     601.00
 55.07     569.00
 55.17     558.00
 55.27     538.36
 55.37     526.49
 55.47     641.00
 55.57     530.93
 55.67     617.29
 55.77     614.00
 55.87     634.98
 55.97     638.33
 56.07     624.63
 56.17     685.00
 56.27     741.00
 56.37     887.00
 56.47    1101.68
 56.57    1324.28
 56.67    1545.00
 56.77    1867.31
 56.87    2141.00
 56.97    2374.76
 57.07    2614.76
 57.17    2464.00
 57.27    2180.00
 57.37    2011.00
 57.47    1606.71
 57.57    1427.58
 57.67    1141.95
 57.77     926.00
 57.87     788.91
 57.97     758.00
 58.07     758.75
 58.17     667.20
 58.27     721.96
 58.37     697.54
 58.47     756.00
 58.57     862.00
 58.67     913.00
 58.77     999.07
 58.87    1070.88
 58.97    1168.00
 59.07    1108.49
 59.17    1234.00
 59.27    1285.17
 59.37    1238.72
 59.47    1171.21
 59.57    1127.50
 59.67    1164.00
 59.77    1239.00
 59.87    1224.00
 59.97    1297.00
 60.07    1190.70
 60.17    1329.00
 60.27    1530.00
 60.37    1497.62
 60.47    1644.00
 60.57    1451.34
 60.67    1440.02
 60.77    1199.74
 60.87    1114.00
 60.97     955.58
 61.07     856.00
 61.17     780.00
 61.27     717.97
 61.37     666.97
 61.47     702.00
 61.57     763.00
 61.67     737.00
 61.77     804.00
 61.87     897.00
 61.97     967.00
 62.07    1105.73
 62.17    1226.00
 62.27    1294.00
 62.37    1303.40
 62.47    1368.94
 62.57    1228.45
 62.67    1139.37
 62.77    1060.00
 62.87     870.00
 62.97     780.00
 63.07     749.50
 63.17     678.00
 63.27     653.00
 63.37     625.00
 63.47     657.14
 63.57     594.60
 63.67     579.00
 63.77     609.72
 63.87     583.65
 63.97     621.35
 64.07     652.00
 64.17     671.00
 64.27     687.00
 64.37     764.00
 64.47     852.00
 64.57     875.00
 64.67     902.00
 64.77     987.00
 64.87     964.00
 64.97    1000.66
 65.07     929.36
 65.17     965.00
 65.27     822.62
 65.37     829.00
 65.47     781.00
 65.57     759.97
 65.67     655.97
 65.77     621.83
 65.87     659.00
 65.97     621.00
 66.07     660.30
 66.17     582.00
 66.27     585.00
 66.37     579.00
 66.47     586.00
 66.57     582.00
 66.67     635.71
 66.77     577.00
 66.87     593.00
 66.97     600.59
 67.07     634.00
 67.17     633.00
 67.27     699.00
 67.37     758.00
 67.47     906.29
 67.57     985.77
 67.67    1053.00
 67.77    1292.75
 67.87    1469.00
 67.97    1755.00
 68.07    1961.00
 68.17    2206.00
 68.27    2280.00
 68.37    2311.20
 68.47    2262.00
 68.57    2105.00
 68.67    1934.58
 68.77    1636.04
 68.87    1464.67
 68.97    1137.00
 69.07    1080.74
 69.17     908.79
 69.27     840.00
 69.37     732.00
 69.47     707.00
 69.57     643.00
 69.67     636.00
 69.77     566.00
 69.87     578.00
 69.97     556.00
 70.07     556.00
 70.17     612.00
 70.27     614.00
 70.37     557.64
 70.47     568.00
 70.57     597.87
 70.67     592.00
 70.77     547.99
 70.87     552.23
 70.97     593.00
 71.07     617.00
 71.17     652.00
 71.27     700.00
 71.37     752.00
 71.47     870.59
 71.57     939.00
 71.67    1063.73
 71.77    1177.00
 71.87    1307.00
 71.97    1449.00
 72.07    1581.00
 72.17    1796.00
 72.27    1818.00
 72.37    1828.81
 72.47    1695.33
 72.57    1588.94
 72.67    1404.56
 72.77    1337.81
 72.87    1202.28
 72.97    1008.00
 73.07     936.00
 73.17     811.00
 73.27     759.62
 73.37     717.00
 73.47     667.06
 73.57     689.00
 73.67     674.00
 73.77     647.00
 73.87     626.00
 73.97     593.00
 74.07     592.00
 74.17     604.00
 74.27     539.00
 74.37     599.00
 74.47     598.86
 74.57     533.42
 74.67     598.00
 74.77     529.01
 74.87     609.19
 74.97     634.00
 75.07     609.88
 75.17     630.00
 75.27     498.24
 75.37     641.00
 75.47     638.00
 75.57     523.71
 75.67     604.00
 75.77     577.00
 75.87     604.00
 75.97     570.00
 76.07     600.19
 76.17     638.62
 76.27     569.15
 76.37     613.03
 76.47     636.00
 76.57     644.00
 76.67     691.00
 76.77     665.88
 76.87     645.75
 76.97     682.67
 77.07     683.71
 77.17     646.00
 77.27     665.21
 77.37     635.00
 77.47     573.00
 77.57     570.56
 77.67     547.00
 77.77     535.00
 77.87     549.00
 77.97     525.00
 78.07     540.00
 78.17     573.07
 78.27     528.00
 78.37     498.39
 78.47     547.11
 78.57     489.00
 78.67     532.74
 78.77     500.11
 78.87     520.00
 78.97     495.00
 79.07     487.24
 79.17     500.00
 79.27     503.00
 79.37     513.00
 79.47     473.08
 79.57     537.00
 79.67     484.40
 79.77     523.00
 79.87     531.00
 79.97     488.13
 80.07     523.29
 80.17     529.00
 80.27     570.00
 80.37     552.00
 80.47     616.00
 80.57     577.84
 80.67     565.10
 80.77     615.00
 80.87     573.00
 80.97     649.00
 81.07     618.00
 81.17     656.00
 81.27     649.00
 81.37     640.00
 81.47     696.00
 81.57     733.09
 81.67     703.00
 81.77     790.14
 81.87     747.00
 81.97     700.00
 82.07     690.00
 82.17     726.00
 82.27     699.00
 82.37     621.00
 82.47     644.00
 82.57     683.77
 82.67     592.00
 82.77     578.85
 82.87     573.00
 82.97     553.00
 83.07     573.27
 83.17     547.00
 83.27     542.00
 83.37     579.22
 83.47     549.55
 83.57     557.00
 83.67     559.00
 83.77     525.00
 83.87     499.00
 83.97     528.00
 84.07     553.00
 84.17     607.68
 84.27     536.84
 84.37     544.00
 84.47     590.14
 84.57     543.00
 84.67     562.89
 84.77     508.47
 84.87     553.00
 84.97     545.00
 85.07     487.00
 85.17     514.00
 85.27     475.60
 85.37     517.00
 85.47     556.00
 85.57     534.91
 85.67     504.18
 85.77     553.00
 85.87     553.00
 85.97     516.00
 86.07     545.00
 86.17     496.00
 86.27     468.19
 86.37     473.45
 86.47     540.55
 86.57     515.00
 86.67     523.00
 86.77     567.86
 86.87     576.00
 86.97     596.35
 87.07     604.00
 87.17     570.00
 87.27     586.24
 87.37     536.00
 87.47     623.00
 87.57     637.00
 87.67     612.00
 87.77     602.00
 87.87     569.23
 87.97     662.00
 88.07     609.15
 88.17     560.85
 88.27     582.00
 88.37     626.00
 88.47     585.59
 88.57     546.00
 88.67     581.00
 88.77     582.00
 88.87     570.00
 88.97     512.97
 89.07     542.00
 89.17     596.00
 89.27     566.00
 89.37     538.78
 89.47     582.00
 89.57     603.65
 89.67     578.00
 89.77     582.00
 89.87     586.00
 89.97     586.90
 90.07     543.00
 90.17     616.00
 90.27     543.00
 90.37     568.00
 90.47     543.00
 90.57     549.03
 90.67     536.00
 90.77     581.05
 90.87     513.00
 90.97     504.00
 91.07     483.55
 91.17     506.00
 91.27     525.68
 91.37     513.00
 91.47     523.12
 91.57     534.93
 91.67     494.00
 91.77     489.35
 91.87     549.00
 91.97     544.00
 92.07     565.46
 92.17     562.55
 92.27     508.71
 92.37     526.59
 92.47     588.33
 92.57     614.30
 92.67     592.00
 92.77     606.00
 92.87     572.00
 92.97     640.57
 93.07     676.00
 93.17     695.00
 93.27     660.00
 93.37     639.00
 93.47     772.52
 93.57     686.40
 93.67     782.00
 93.77     750.00
 93.87     779.80
 93.97     753.00
 94.07     787.57
 94.17     799.00
 94.27     857.00
 94.37     909.00
 94.47     789.85
 94.57     894.03
 94.67     845.00
 94.77     955.00
 94.87     846.00
 94.97     886.00
 95.07     954.28
 95.17     929.00
 95.27     857.00
 95.37     895.00
 95.47     849.38
 95.57     889.00
 95.67     789.00
 95.77     795.00
 95.87     783.00
 95.97     765.00
 96.07     735.00
 96.17     685.00
 96.27     670.00
 96.37     684.62
 96.47     693.00
 96.57     708.00
 96.67     809.86
 96.77     869.18
 96.87     820.11
 96.97     844.00
 97.07     991.34
 97.17    1007.00
 97.27    1141.80
 97.37    1194.87
 97.47    1225.64
 97.57    1265.00
 97.67    1390.00
 97.77    1391.00
 97.87    1470.00
 97.97    1390.93
 98.07    1434.01
 98.17    1497.00
 98.27    1392.00
 98.37    1370.00
 98.47    1258.00
 98.57    1220.09
 98.67    1195.01
 98.77    1054.00
 98.87    1066.00
 98.97     985.00
 99.07     910.85
 99.17     877.00
 99.27     873.00
 99.37     838.04
 99.47     911.00
 99.57     903.00
 99.67     934.00
 99.77     945.55
 99.87    1081.00
 99.97    1147.00
100.07    1226.00
100.17    1310.00
100.27    1422.00
100.37    1534.38
100.47    1556.00
100.57    1585.00
100.67    1765.00
100.77    1754.09
100.87    1850.95
100.97    1906.00
101.07    2027.00
101.17    1929.30
101.27    1952.00
101.37    1977.00
101.47    1984.37
101.57    1881.00
101.67    1866.97
101.77    1667.00
101.87    1688.00
101.97    1615.00
102.07    1473.51
102.17    1327.00
102.27    1362.55
102.37    1361.82
102.47    1321.48
102.57    1234.00
102.67    1254.00
102.77    1205.00
102.87    1133.00
102.97    1093.00
103.07    1116.00
103.17    1057.70
103.27    1054.00
103.37    1064.00
103.47    1059.00
103.57     898.00
103.67     865.41
103.77     834.00
103.87     865.00
103.97     810.00
104.07     816.00
104.17     729.00
104.27     713.00
104.37     714.41
104.47     666.00
104.57     616.00
104.67     543.43
104.77     614.98
104.87     552.00
104.97     604.00
105.07     566.00
105.17     557.96
105.27     564.56
105.37     564.00
105.47     519.00
105.57     563.00
105.67     538.42
105.77     559.00
105.87     551.00
105.97     495.35
106.07     527.00
106.17     588.00
106.27     593.00
106.37     543.11
106.47     548.00
106.57     553.00
106.67     540.00
106.77     587.00
106.87     614.31
106.97     675.99
107.07     566.00
107.17     635.00
107.27     616.00
107.37     631.00
107.47     664.00
107.57     665.00
107.67     709.00
107.77     670.00
107.87     674.00
107.97     646.65
108.07     676.00
108.17     659.00
108.27     748.09
108.37     719.10
108.47     697.97
108.57     663.00
108.67     694.00
108.77     749.34
108.87     695.00
108.97     703.41
109.07     679.12
109.17     700.00
109.27     646.00
109.37     688.36
109.47     673.00
109.57     732.00
109.67     649.00
109.77     729.21
109.87     658.00
109.97     669.84
110.07     671.00
110.17     642.41
110.27     661.00
110.37     614.53
110.47     607.00
110.57     622.00
110.67     594.00
110.77     569.00
110.87     586.00
110.97     572.00
111.07     570.00
111.17     598.00
111.27     555.35
111.37     566.00
111.47     556.00
111.57     545.00
111.67     574.00
111.77     573.00
111.87     538.51
111.97     587.55
112.07     574.00
112.17     536.00
112.27     568.01
112.37     551.54
112.47     582.00
112.57     545.00
112.67     599.74
112.77     558.00
112.87     573.00
112.97     518.51
113.07     569.00
113.17     582.77
113.27     566.00
113.37     579.00
113.47     633.00
113.57     643.00
113.67     558.34
113.77     656.00
113.87     635.53
113.97     642.00
114.07     639.00
114.17     703.00
114.27     773.00
114.37     759.00
114.47     778.00
114.57     920.32
114.67     903.00
114.77    1008.00
114.87    1092.00
114.97    1210.00
115.07    1379.00
115.17    1414.08
115.27    1681.76
115.37    1900.72
115.47    2200.00
115.57    2209.97
115.67    2491.00
115.77    3040.00
115.87    3232.00
115.97    3618.00
116.07    3945.00
116.17    4348.00
116.27    4840.00
116.37    5056.00
116.47    5452.38
116.57    5704.00
116.67    5960.85
116.77    6508.31
116.87    6763.19
116.97    6744.00
117.07    6965.00
117.17    6794.08
117.27    6809.45
117.37    6811.00
117.47    6736.00
117.57    6529.00
117.67    6169.00
117.77    6106.68
117.87    5837.12
117.97    5215.00
118.07    4968.52
118.17    4607.00
118.27    4301.00
118.37    3923.88
118.47    3622.76
118.57    3160.60
118.67    2984.23
118.77    2687.99
118.87    2409.21
118.97    2085.00
119.07    1921.00
119.17    1686.57
119.27    1586.67
119.37    1421.00
119.47    1281.00
119.57    1149.00
119.67    1033.16
119.77     946.00
119.87     925.85
119.97     882.92
120.07     880.00
120.17     802.00
120.27     736.00
120.37     751.00
120.47     727.00
120.57     642.00
120.67     705.00
120.77     648.37
120.87     617.08
120.97     688.80
121.07     625.00
121.17     641.00
121.27     596.00
121.37     587.00
121.47     572.00
121.57     568.00
121.67     580.00
121.77     623.00
121.87     560.00
121.97     578.00
122.07     565.00
122.17     600.00
122.27     591.00
122.37     592.00
122.47     638.00
122.57     580.00
122.67     666.33
122.77     631.00
122.87     615.98
122.97     570.00
123.07     641.00
123.17     663.23
123.27     636.00
123.37     615.77
123.47     606.00
123.57     619.05
123.67     675.00
123.77     632.00
123.87     641.00
123.97     577.00
124.07     610.91
124.17     686.00
124.27     630.00
124.37     602.12
124.47     564.30
124.57     621.00
124.67     554.68
124.77     612.00
124.87     579.05
124.97     621.00
