  9.97     604.49
 10.07     616.00
 10.17     590.00
 10.27     611.00
 10.37     602.49
 10.47     556.95
 10.57     638.00
 10.67     600.36
 10.77     554.00
 10.87     593.00
 10.97     582.00
 11.07     549.00
 11.17     643.00
 11.27     539.98
 11.37     594.00
 11.47     605.00
 11.57     624.16
 11.67     569.93
 11.77     615.15
 11.87     643.00
 11.97     654.00
 12.07     654.10
 12.17     688.00
 12.27     681.00
 12.37     650.00
 12.47     668.00
 12.57     567.00
 12.67     548.00
 12.77     575.00
 12.87     589.00
 12.97     571.00
 13.07     592.00
 13.17     582.69
 13.27     569.00
 13.37     544.00
 13.47     558.48
 13.57     542.10
 13.67     595.73
 13.77     603.19
 13.87     561.00
 13.97     553.53
 14.07     573.00
 14.17     547.00
 14.27     566.00
 14.37     549.00
 14.47     600.40
 14.57     611.75
 14.67     549.25
 14.77     611.00
 14.87     535.94
 14.97     591.43
 15.07     531.00
 15.17     525.21
 15.27     607.00
 15.37     553.00
 15.47     533.89
 15.57     536.53
 15.67     581.56
 15.77     584.00
 15.87     554.00
 15.97     562.00
 16.07     545.46
 16.17     605.73
 16.27     592.64
 16.37     574.66
 16.47     579.00
 16.57     577.92
 16.67     538.00
 16.77     540.00
 16.87     578.00
 16.97     532.07
 17.07     581.00
 17.17     550.00
 17.27     607.00
 17.37     589.55
 17.47     552.00
 17.57     528.00
 17.67     588.83
 17.77     593.08
 17.87     563.00
 17.97     535.59
 18.07     577.00
 18.17     553.04
 18.27     572.72
 18.37     586.59
 18.47     552.34
 18.57     545.95
 18.67     565.00
 18.77     573.00
 18.87     622.00
 18.97     591.26
 19.07     544.00
 19.17     523.01
 19.27     532.59
 19.37     527.00
 19.47     562.00
 19.57     526.00
 19.67     508.00
 19.77     574.56
 19.87     555.04
 19.97     513.00
 20.07     557.00
 20.17     533.00
 20.27     513.77
 20.37     572.00
 20.47     552.00
 20.57     558.00
 20.67     528.66
 20.77     590.31
 20.87     537.00
 20.97     517.36
 21.07     577.62
 21.17     580.00
 21.27     521.00
 21.37     547.50
 21.47     538.99
 21.57     550.57
 21.67     554.00
 21.77     528.68
 21.87     532.00
 21.97     533.00
 22.07     562.00
 22.17     552.78
 22.27     511.00
 22.37     585.67
 22.47     588.77
 22.57     508.56
 22.67     560.94
 22.77     532.00
 22.87     565.06
 22.97     550.00
 23.07     564.00
 23.17     554.00
 23.27     561.92
 23.37     547.14
 23.47     545.00
 23.57     523.52
 23.67     553.00
 23.77     590.00
 23.87     516.58
 23.97     542.00
 24.07     537.00
 24.17     562.14
 24.27     543.00
 24.37     593.91
 24.47     564.00
 24.57     595.00
 24.67     649.88
 24.77     602.00
 24.87     628.00
 24.97     650.50
 25.07     601.04
 25.17     557.00
 25.27     584.00
 25.37     584.00
 25.47     547.00
 25.57     561.00
 25.67     534.00
 25.77     523.15
 25.87     545.00
 25.97     552.74
 26.07     565.23
 26.17     544.00
 26.27     532.00
 26.37     512.00
 26.47     536.00
 26.57     541.70
 26.67     548.00
 26.77     583.00
 26.87     538.00
 26.97     518.08
 27.07     566.00
 27.17     522.13
 27.27     500.96
 27.37     559.00
 27.47     552.56
 27.57     500.08
 27.67     562.00
 27.77     599.00
 27.87     640.00
 27.97     703.00
 28.07     790.00
 28.17     902.00
 28.27     950.00
 28.37     864.55
 28.47     814.17
 28.57     691.33
 28.67     723.44
 28.77     705.00
 28.87     759.00
 28.97     880.52
 29.07     717.00
 29.17     682.00
 29.27     643.82
 29.37     602.00
 29.47     574.00
 29.57     600.65
 29.67     604.00
 29.77     560.75
 29.87     552.32
 29.97     529.00
 30.07     571.00
 30.17     522.00
 30.27     557.00
 30.37     584.00
 30.47     528.35
 30.57     534.48
 30.67     572.00
 30.77     611.00
 30.87     556.97
 30.97     594.00
 31.07     584.00
 31.17     538.72
 31.27     591.00
 31.37     511.00
 31.47     510.00
 31.57     568.00
 31.67     556.00
 31.77     550.00
 31.87     514.00
 31.97     529.00
 32.07     493.87
 32.17     537.00
 32.27     552.44
 32.37     538.00
 32.47     562.00
 32.57     578.00
 32.67     559.44
 32.77     516.00
 32.87     536.00
 32.97     547.92
 33.07     555.00
 33.17     525.05
 33.27     564.00
 33.37     572.00
 33.47     547.00
 33.57     592.00
 33.67     590.90
 33.77     710.42
 33.87     882.49
 33.97    1037.00
 34.07    1022.00
 34.17    1027.41
 34.27     854.00
 34.37     758.00
 34.47     604.00
 34.57     561.00
 34.67     541.42
 34.77     564.00
 34.87     574.00
 34.97     560.00
 35.07     552.00
 35.17     531.00
 35.27     548.00
 35.37     532.25
 35.47     475.00
 35.57     507.00
 35.67     524.38
 35.77     520.00
 35.87     542.00
 35.97     477.30
 36.07     544.04
 36.17     548.00
 36.27     476.79
 36.37     503.00
 36.47     484.89
 36.57     536.00
 36.67     535.00
 36.77     545.05
 36.87     543.63
 36.97     499.00
 37.07     466.00
 37.17     505.55
 37.27     523.55
 37.37     573.00
 37.47     511.00
 37.57     549.00
 37.67     569.00
 37.77     511.38
 37.87     564.81
 37.97     541.71
 38.07     477.00
 38.17     536.87
 38.27     477.84
 38.37     500.00
 38.47     474.00
 38.57     475.90
 38.67     478.00
 38.77     528.00
 38.87     495.00
 38.97     486.00
 39.07     515.12
 39.17     489.09
 39.27     507.00
 39.37     532.74
 39.47     542.63
 39.57     530.00
 39.67     495.00
 39.77     558.00
 39.87     523.00
 39.97     508.00
 40.07     481.29
 40.17     484.00
 40.27     545.00
 40.37     544.37
 40.47     481.00
 40.57     465.00
 40.67     516.00
 40.77     480.00
 40.87     524.89
 40.97     512.00
 41.07     510.00
 41.17     546.62
 41.27     548.77
 41.37     542.20
 41.47     529.30
 41.57     485.21
 41.67     496.00
 41.77     524.00
 41.87     526.90
 41.97     546.23
 42.07     503.00
 42.17     505.00
 42.27     493.00
 42.37     529.00
 42.47     536.00
 42.57     613.00
 42.67     545.00
 42.77     631.00
 42.87     615.00
 42.97     539.00
 43.07     539.00
 43.17     519.00
 43.27     520.00
 43.37     524.00
 43.47     504.21
 43.57     481.72
 43.67     491.00
 43.77     489.00
 43.87     522.00
 43.97     492.00
 44.07     480.00
 44.17     507.00
 44.27     539.35
 44.37     482.00
 44.47     498.76
 44.57     508.06
 44.67     555.00
 44.77     506.74
 44.87     505.00
 44.97     484.00
 45.07     528.00
 45.17     503.00
 45.27     565.00
 45.37     523.00
 45.47     488.54
 45.57     487.96
 45.67     567.00
 45.77     476.28
 45.87     514.00
 45.97     489.00
 46.07     478.00
 46.17     509.05
 46.27     477.00
 46.37     462.00
 46.47     542.00
 46.57     479.00
 46.67     513.00
 46.77     547.13
 46.87     499.88
 46.97     504.00
 47.07     520.00
 47.17     537.00
 47.27     543.00
 47.37     548.00
 47.47     498.81
 47.57     574.00
 47.67     608.00
 47.77     629.75
 47.87     640.50
 47.97     595.00
 48.07     597.00
 48.17     581.00
 48.27     591.29
 48.37     580.00
 48.47     547.33
 48.57     526.00
 48.67     546.00
 48.77     545.00
 48.87     531.00
 48.97     546.34
 49.07     607.13
 49.17     549.00
 49.27     627.00
 49.37     645.14
 49.47     713.04
 49.57     776.00
 49.67     933.00
 49.77    1137.00
 49.87    1477.00
 49.97    1742.88
 50.07    2202.00
 50.17    2433.38
 50.27    2401.22
 50.37    2191.00
 50.47    1813.00
 50.57    1415.00
 50.67    1112.74
 50.77     810.00
 50.87     792.00
 50.97     695.37
 51.07     654.00
 51.17     639.00
 51.27     613.00
 51.37     612.15
 51.47     570.00
 51.57     555.44
 51.67     528.00
 51.77     550.79
 51.87     542.00
 51.97     547.00
 52.07     590.00
 52.17     552.16
 52.27     526.00
 52.37     558.44
 52.47     558.00
 52.57     510.31
 52.67     549.00
 52.77     610.00
 52.87     656.00
 52.97     722.28
 53.07     787.00
 53.17     869.00
 53.27    1062.20
 53.37    1187.00
 53.47    1144.00
 53.57    1211.30
 53.67    1196.30
 53.77    1044.26
 53.87     841.00
 53.97     811.49
 54.07     698.88
 54.17     661.43
 54.27     558.91
 54.37     600.00
 54.47     560.00
 54.57     601.00
 54.67     537.62
 54.77     547.00
 54.87     521.07
 54.97     571.00
 55.07     551.00
 55.17     568.53
 55.27     576.00
 55.37     576.00
 55.47     574.57
 55.57     600.00
 55.67     601.00
 55.77     552.96
 55.87     576.00
 55.97     578.00
 56.07     645.85
 56.17     774.00
 56.27     940.00
 56.37    1105.00
 56.47    1419.00
 56.57    1873.86
 56.67    2245.00
 56.77    2476.00
 56.87    2726.35
 56.97    2604.00
 57.07    2375.00
 57.17    2097.00
 57.27    1603.96
 57.37    1268.00
 57.47    1001.00
 57.57     860.00
 57.67     704.18
 57.77     713.00
 57.87     667.81
 57.97     696.36
 58.07     661.00
 58.17     723.00
 58.27     757.00
 58.37     807.00
 58.47     935.14
 58.57    1009.00
 58.67    1113.00
 58.77    1262.00
 58.87    1307.49
 58.97    1444.70
 59.07    1428.00
 59.17    1415.19
 59.27    1345.65
 59.37    1335.00
 59.47    1254.51
 59.57    1165.71
 59.67    1089.89
 59.77    1185.00
 59.87    1161.39
 59.97    1345.00
 60.07    1508.00
 60.17    1509.42
 60.27    1578.00
 60.37    1503.00
 60.47    1399.00
 60.57    1225.00
 60.67    1141.00
 60.77     945.00
 60.87     808.00
 60.97     726.00
 61.07     660.00
 61.17     612.00
 61.27     637.99
 61.37     722.00
 61.47     659.33
 61.57     747.00
 61.67     849.00
 61.77     974.38
 61.87    1068.00
 61.97    1217.00
 62.07    1323.43
 62.17    1391.00
 62.27    1318.00
 62.37    1278.00
 62.47    1149.92
 62.57    1062.00
 62.67     882.00
 62.77     778.00
 62.87     699.49
 62.97     672.31
 63.07     610.00
 63.17     582.00
 63.27     556.00
 63.37     528.26
 63.47     551.06
 63.57     600.00
 63.67     568.00
 63.77     594.00
 63.87     606.28
 63.97     644.00
 64.07     698.00
 64.17     770.00
 64.27     834.00
 64.37     860.00
 64.47     956.00
 64.57    1010.00
 64.67     990.00
 64.77     989.00
 64.87    1023.00
 64.97     904.00
 65.07     864.00
 65.17     747.00
 65.27     732.69
 65.37     677.13
 65.47     649.77
 65.57     645.00
 65.67     570.00
 65.77     578.47
 65.87     614.63
 65.97     537.92
 66.07     553.11
 66.17     563.00
 66.27     544.00
 66.37     545.00
 66.47     581.23
 66.57     602.38
 66.67     507.00
 66.77     594.00
 66.87     588.00
 66.97     579.53
 67.07     626.00
 67.17     730.38
 67.27     782.00
 67.37     899.37
 67.47    1070.88
 67.57    1323.17
 67.67    1589.32
 67.77    1896.00
 67.87    2089.05
 67.97    2348.00
 68.07    2433.61
 68.17    2372.00
 68.27    2274.58
 68.37    1990.62
 68.47    1759.66
 68.57    1452.65
 68.67    1245.00
 68.77     981.00
 68.87     897.61
 68.97     811.00
 69.07     684.00
 69.17     677.00
 69.27     603.45
 69.37     602.36
 69.47     601.00
 69.57     568.00
 69.67     567.00
 69.77     596.00
 69.87     539.00
 69.97     541.10
 70.07     545.00
 70.17     536.00
 70.27     603.01
 70.37     584.00
 70.47     562.00
 70.57     531.40
 70.67     566.00
 70.77     576.00
 70.87     598.57
 70.97     624.00
 71.07     648.00
 71.17     747.00
 71.27     822.00
 71.37     910.05
 71.47    1103.52
 71.57    1260.00
 71.67    1390.62
 71.77    1570.80
 71.87    1824.00
 71.97    1938.00
 72.07    1888.00
 72.17    1785.00
 72.27    1794.00
 72.37    1623.00
 72.47    1449.00
 72.57    1262.01
 72.67    1126.66
 72.77    1001.76
 72.87     888.00
 72.97     781.00
 73.07     811.89
 73.17     706.00
 73.27     710.44
 73.37     625.00
 73.47     669.29
 73.57     622.00
 73.67     645.62
 73.77     595.08
 73.87     570.00
 73.97     608.37
 74.07     596.31
 74.17     587.01
 74.27     652.00
 74.37     570.19
 74.47     603.97
 74.57     621.00
 74.67     615.89
 74.77     533.54
 74.87     614.00
 74.97     599.13
 75.07     613.00
 75.17     538.38
 75.27     597.00
 75.37     578.51
 75.47     548.46
 75.57     603.00
 75.67     523.34
 75.77     553.88
 75.87     558.10
 75.97     585.00
 76.07     594.98
 76.17     696.34
 76.27     693.10
 76.37     675.00
 76.47     714.00
 76.57     699.00
 76.67     742.77
 76.77     685.66
 76.87     718.19
 76.97     651.00
 77.07     614.00
 77.17     644.00
 77.27     537.00
 77.37     584.00
 77.47     621.00
 77.57     530.16
 77.67     501.00
 77.77     546.15
 77.87     481.00
 77.97     516.12
 78.07     518.00
 78.17     518.00
 78.27     509.00
 78.37     488.00
 78.47     543.00
 78.57     511.69
 78.67     504.00
 78.77     524.00
 78.87     475.00
 78.97     527.00
 79.07     567.75
 79.17     503.00
 79.27     515.00
 79.37     541.00
 79.47     531.00
 79.57     502.00
 79.67     570.39
 79.77     531.00
 79.87     563.00
 79.97     562.00
 80.07     577.00
 80.17     514.00
 80.27     563.00
 80.37     576.00
 80.47     551.91
 80.57     604.88
 80.67     642.00
 80.77     648.63
 80.87     711.23
 80.97     677.00
 81.07     728.00
 81.17     778.00
 81.27     798.00
 81.37     750.00
 81.47     810.00
 81.57     757.00
 81.67     762.00
 81.77     717.81
 81.87     710.00
 81.97     737.00
 82.07     677.00
 82.17     677.00
 82.27     617.00
 82.37     622.00
 82.47     604.00
 82.57     614.00
 82.67     582.00
 82.77     543.00
 82.87     557.36
 82.97     531.31
 83.07     541.00
 83.17     587.50
 83.27     538.96
 83.37     494.00
 83.47     540.87
 83.57     580.00
 83.67     510.00
 83.77     552.00
 83.87     619.08
 83.97     572.00
 84.07     596.00
 84.17     577.00
 84.27     591.00
 84.37     590.88
 84.47     570.30
 84.57     578.00
 84.67     523.28
 84.77     575.06
 84.87     499.84
 84.97     504.00
 85.07     562.00
 85.17     584.00
 85.27     500.82
 85.37     546.00
 85.47     512.83
 85.57     493.00
 85.67     514.48
 85.77     535.30
 85.87     553.00
 85.97     536.67
 86.07     498.00
 86.17     537.74
 86.27     559.00
 86.37     585.45
 86.47     555.77
 86.57     517.00
 86.67     567.00
 86.77     607.00
 86.87     606.42
 86.97     555.14
 87.07     569.34
 87.17     621.00
 87.27     637.98
 87.37     640.99
 87.47     645.60
 87.57     677.00
 87.67     627.00
 87.77     627.00
 87.87     569.23
 87.97     624.00
 88.07     643.00
 88.17     580.07
 88.27     557.00
 88.37     604.99
 88.47     603.96
 88.57     587.00
 88.67     571.75
 88.77     594.10
 88.87     560.00
 88.97     566.67
 89.07     609.00
 89.17     598.00
 89.27     605.00
 89.37     629.00
 89.47     642.01
 89.57     561.36
 89.67     553.00
 89.77     562.00
 89.87     557.00
 89.97     558.00
 90.07     570.00
 90.17     534.00
 90.27     571.71
 90.37     563.00
 90.47     530.00
 90.57     557.00
 90.67     508.00
 90.77     532.00
 90.87     520.44
 90.97     539.00
 91.07     558.23
 91.17     495.95
 91.27     548.94
 91.37     548.46
 91.47     536.00
 91.57     514.73
 91.67     525.00
 91.77     517.47
 91.87     517.33
 91.97     519.00
 92.07     550.00
 92.17     585.00
 92.27     545.00
 92.37     586.00
 92.47     619.00
 92.57     666.00
 92.67     631.00
 92.77     672.00
 92.87     678.00
 92.97     702.00
 93.07     728.00
 93.17     821.00
 93.27     781.00
 93.37     775.62
 93.47     786.00
 93.57     868.00
 93.67     793.00
 93.77     825.00
 93.87     830.00
 93.97     871.00
 94.07     850.00
 94.17     861.00
 94.27     878.00
 94.37     845.76
 94.47     865.00
 94.57     903.00
 94.67     947.00
 94.77     855.85
 94.87     895.00
 94.97     878.00
 95.07     877.53
 95.17     846.51
 95.27     864.00
 95.37     847.00
 95.47     763.00
 95.57     812.00
 95.67     717.00
 95.77     721.45
 95.87     698.00
 95.97     690.00
 96.07     670.00
 96.17     695.00
 96.27     729.00
 96.37     773.88
 96.47     794.00
 96.57     892.94
 96.67     868.25
 96.77     991.00
 96.87    1031.00
 96.97    1125.00
 97.07    1181.64
 97.17    1246.00
 97.27    1353.37
 97.37    1384.00
 97.47    1439.00
 97.57    1446.00
 97.67    1393.00
 97.77    1355.00
 97.87    1410.00
 97.97    1305.00
 98.07    1188.93
 98.17    1152.00
 98.27    1067.00
 98.37    1027.00
 98.47     998.00
 98.57     914.00
 98.67     884.47
 98.77     806.00
 98.87     806.00
 98.97     798.00
 99.07     830.00
 99.17     813.00
 99.27     864.20
 99.37     947.00
 99.47    1011.00
 99.57    1099.00
 99.67    1215.00
 99.77    1292.00
 99.87    1426.27
 99.97    1560.17
100.07    1607.41
100.17    1818.00
100.27    1823.00
100.37    2018.00
100.47    2027.37
100.57    2108.00
100.67    2046.62
100.77    2070.53
100.87    2020.41
100.97    2021.00
101.07    1923.22
101.17    1804.43
101.27    1773.00
101.37    1645.48
101.47    1556.00
101.57    1439.03
101.67    1475.00
101.77    1379.00
101.87    1395.00
101.97    1267.00
102.07    1197.00
102.17    1123.00
102.27    1093.01
102.37    1054.00
102.47    1120.00
102.57    1117.37
102.67     998.22
102.77    1036.09
102.87    1050.83
102.97     956.00
103.07     863.00
103.17     895.11
103.27     865.00
103.37     780.00
103.47     776.00
103.57     728.00
103.67     682.00
103.77     699.74
103.87     632.00
103.97     589.00
104.07     630.00
104.17     565.00
104.27     574.82
104.37     551.00
104.47     536.00
104.57     573.00
104.67     577.23
104.77     566.00
104.87     555.58
104.97     537.00
105.07     577.00
105.17     533.00
105.27     548.00
105.37     515.00
105.47     563.00
105.57     542.00
105.67     503.97
105.77     585.00
105.87     572.50
105.97     587.05
106.07     573.00
106.17     529.00
106.27     595.00
106.37     598.00
106.47     603.00
106.57     598.08
106.67     630.41
106.77     646.04
106.87     618.00
106.97     679.00
107.07     677.58
107.17     645.67
107.27     682.00
107.37     704.00
107.47     727.00
107.57     709.00
107.67     668.00
107.77     689.00
107.87     676.11
107.97     732.00
108.07     703.57
108.17     712.00
108.27     687.00
108.37     665.00
108.47     702.00
108.57     688.00
108.67     685.00
108.77     734.51
108.87     672.00
108.97     646.00
109.07     693.00
109.17     650.37
109.27     678.00
109.37     631.14
109.47     614.00
109.57     674.00
109.67     622.00
109.77     581.00
109.87     622.00
109.97     592.77
110.07     559.00
110.17     631.00
110.27     597.00
110.37     621.00
110.47     552.00
110.57     576.42
110.67     550.00
110.77     530.00
110.87     556.00
110.97     513.23
111.07     589.00
111.17     497.24
111.27     569.99
111.37     552.17
111.47     520.00
111.57     519.00
111.67     544.00
111.77     554.00
111.87     576.36
111.97     522.78
112.07     563.00
112.17     599.00
112.27     553.79
112.37     601.00
112.47     632.00
112.57     604.00
112.67     640.00
112.77     651.31
112.87     651.00
112.97     624.32
113.07     692.12
113.17     643.00
113.27     707.00
113.37     715.00
113.47     748.00
113.57     770.00
113.67     789.90
113.77     839.38
113.87     895.00
113.97     905.48
114.07     940.00
114.17    1031.58
114.27    1126.00
114.37    1090.00
114.47    1322.62
114.57    1347.88
114.67    1562.00
114.77    1620.91
114.87    1879.00
114.97    2113.00
115.07    2295.00
115.17    2482.75
115.27    2854.00
115.37    3147.00
115.47    3312.40
115.57    3740.00
115.67    4169.00
115.77    4525.00
115.87    4801.37
115.97    5188.00
116.07    5624.00
116.17    5958.40
116.27    6350.00
116.37    6592.00
116.47    6831.00
116.57    6897.00
116.67    6920.21
116.77    6895.47
116.87    6760.88
116.97    6608.11
117.07    6283.01
117.17    6191.97
117.27    5465.00
117.37    5179.00
117.47    4907.00
117.57    4529.00
117.67    4332.00
117.77    3971.00
117.87    3480.46
117.97    3270.00
118.07    2742.93
118.17    2508.00
118.27    2161.00
118.37    2046.00
118.47    1851.08
118.57    1521.09
118.67    1418.00
118.77    1222.21
118.87    1099.23
118.97    1019.91
119.07     977.72
119.17     878.92
119.27     859.00
119.37     746.00
119.47     730.79
119.57     708.00
119.67     679.00
119.77     615.00
119.87     649.00
119.97     625.43
120.07     605.00
120.17     583.00
120.27     566.58
120.37     608.68
120.47     561.00
120.57     584.00
120.67     608.85
120.77     548.00
120.87     601.05
120.97     587.00
121.07     589.00
121.17     562.52
121.27     582.00
121.37     550.00
121.47     537.71
121.57     534.00
121.67     564.00
121.77     560.85
121.87     592.43
121.97     618.00
122.07     594.36
122.17     652.00
122.27     651.00
122.37     633.00
122.47     585.00
122.57     640.00
122.67     670.00
122.77     656.57
122.87     635.00
122.97     612.00
123.07     664.21
123.17     638.00
123.27     616.78
123.37     598.67
123.47     598.00
123.57     639.00
123.67     673.00
123.77     594.50
123.87     658.00
123.97     618.00
124.07     569.23
124.17     612.00
124.27     628.00
124.37     650.00
124.47     588.00
124.57     608.00
124.67     586.00
124.77     568.00
124.87     581.00
124.97     584.00
