  9.97     600.00
 10.07     562.00
 10.17     532.36
 10.27     597.00
 10.37     562.00
 10.47     596.00
 10.57     532.99
 10.67     597.00
 10.77     564.39
 10.87     543.20
 10.97     551.00
 11.07     600.00
 11.17     579.17
 11.27     585.00
 11.37     578.00
 11.47     532.13
 11.57     557.00
 11.67     590.00
 11.77     581.85
 11.87     663.00
 11.97     668.00
 12.07     691.00
 12.17     645.90
 12.27     700.00
 12.37     725.00
 12.47     621.00
 12.57     594.00
 12.67     595.65
 12.77     558.00
 12.87     534.00
 12.97     581.00
 13.07     573.00
 13.17     555.00
 13.27     587.00
 13.37     565.00
 13.47     526.00
 13.57     538.00
 13.67     552.00
 13.77     568.65
 13.87     578.00
 13.97     571.00
 14.07     530.00
 14.17     518.00
 14.27     543.00
 14.37     543.00
 14.47     546.57
 14.57     536.79
 14.67     576.00
 14.77     550.00
 14.87     569.00
 14.97     519.00
 15.07     597.77
 15.17     543.00
 15.27     531.00
 15.37     575.00
 15.47     574.00
 15.57     535.00
 15.67     538.00
 15.77     546.00
 15.87     524.24
 15.97     520.00
 16.07     586.00
 16.17     539.00
 16.27     596.04
 16.37     556.50
 16.47     540.00
 16.57     562.00
 16.67     524.26
 16.77     520.22
 16.87     585.83
 16.97     565.00
 17.07     541.00
 17.17     532.25
 17.27     553.00
 17.37     526.13
 17.47     597.00
 17.57     550.38
 17.67     537.00
 17.77     572.00
 17.87     594.34
 17.97     504.00
 18.07     554.00
 18.17     520.00
 18.27     561.43
 18.37     522.00
 18.47     523.00
 18.57     576.41
 18.67     545.00
 18.77     581.00
 18.87     549.01
 18.97     535.85
 19.07     543.43
 19.17     563.00
 19.27     587.50
 19.37     534.00
 19.47     577.48
 19.57     581.00
 19.67     574.00
 19.77     601.32
 19.87     546.00
 19.97     565.00
 20.07     519.00
 20.17     576.00
 20.27     538.67
 20.37     522.00
 20.47     536.39
 20.57     518.00
 20.67     565.79
 20.77     561.00
 20.87     586.15
 20.97     517.32
 21.07     545.61
 21.17     571.00
 21.27     559.00
 21.37     574.00
 21.47     548.10
 21.57     589.13
 21.67     571.23
 21.77     525.28
 21.87     499.00
 21.97     593.21
 22.07     549.58
 22.17     560.00
 22.27     544.00
 22.37     558.00
 22.47     544.97
 22.57     585.01
 22.67     581.91
 22.77     579.00
 22.87     541.00
 22.97     528.00
 23.07     535.00
 23.17     562.48
 23.27     516.53
 23.37     537.00
 23.47     570.28
 23.57     531.00
 23.67     568.00
 23.77     546.82
 23.87     535.00
 23.97     542.00
 24.07     539.21
 24.17     508.88
 24.27     587.00
 24.37     551.51
 24.47     548.89
 24.57     580.88
 24.67     623.40
 24.77     626.00
 24.87     638.00
 24.97     665.00
 25.07     568.75
 25.17     543.36
 25.27     525.03
 25.37     590.00
 25.47     523.00
 25.57     553.82
 25.67     569.00
 25.77     537.84
 25.87     524.17
 25.97     515.00
 26.07     571.00
 26.17     624.00
 26.27     559.00
 26.37     573.00
 26.47     539.28
 26.57     547.96
 26.67     536.00
 26.77     546.00
 26.87     515.00
 26.97     553.00
 27.07     570.00
 27.17     569.56
 27.27     508.26
 27.37     522.50
 27.47     562.00
 27.57     557.91
 27.67     540.86
 27.77     593.00
 27.87     608.00
 27.97     649.00
 28.07     754.00
 28.17     806.00
 28.27     904.00
 28.37     935.00
 28.47     817.00
 28.57     775.00
 28.67     688.56
 28.77     735.00
 28.87     805.00
 28.97     829.00
 29.07     805.00
 29.17     741.00
 29.27     655.00
 29.37     591.00
 29.47     585.28
 29.57     585.00
 29.67     609.00
 29.77     617.00
 29.87     564.08
 29.97     543.00
 30.07     507.00
 30.17     539.00
 30.27     543.00
 30.37     555.00
 30.47     561.00
 30.57     545.00
 30.67     542.37
 30.77     591.00
 30.87     584.62
 30.97     603.96
 31.07     567.09
 31.17     620.00
 31.27     594.00
 31.37     552.00
 31.47     528.00
 31.57     501.77
 31.67     524.00
 31.77     555.00
 31.87     527.79
 31.97     530.00
 32.07     537.06
 32.17     554.73
 32.27     550.00
 32.37     501.58
 32.47     511.69
 32.57     540.49
 32.67     569.00
 32.77     506.90
 32.87     578.00
 32.97     509.91
 33.07     492.95
 33.17     564.00
 33.27     520.00
 33.37     532.00
 33.47     517.10
 33.57     608.00
 33.67     665.00
 33.77     726.61
 33.87     825.00
 33.97     972.00
 34.07    1016.75
 34.17    1050.10
 34.27     969.00
 34.37     774.62
 34.47     698.00
 34.57     590.00
 34.67     579.06
 34.77     552.00
 34.87     569.00
 34.97     513.00
 35.07     551.00
 35.17     516.40
 35.27     531.75
 35.37     527.00
 35.47     474.22
 35.57     490.00
 35.67     536.00
 35.77     482.00
 35.87     532.65
 35.97     496.00
 36.07     511.78
 36.17     500.75
 36.27     503.00
 36.37     476.92
 36.47     493.00
 36.57     546.02
 36.67     492.44
 36.77     513.00
 36.87     483.00
 36.97     477.00
 37.07     502.91
 37.17     496.00
 37.27     514.00
 37.37     518.69
 37.47     562.00
 37.57     528.00
 37.67     480.25
 37.77     486.00
 37.87     480.00
 37.97     519.00
 38.07     541.00
 38.17     507.00
 38.27     524.00
 38.37     527.33
 38.47     506.00
 38.57     485.00
 38.67     525.13
 38.77     480.00
 38.87     492.00
 38.97     493.61
 39.07     486.72
 39.17     532.37
 39.27     518.00
 39.37     485.00
 39.47     467.44
 39.57     518.00
 39.67     508.00
 39.77     478.84
 39.87     520.19
 39.97     505.39
 40.07     474.45
 40.17     470.00
 40.27     475.00
 40.37     453.00
 40.47     483.34
 40.57     469.77
 40.67     470.28
 40.77     489.00
 40.87     507.45
 40.97     460.85
 41.07     497.00
 41.17     503.00
 41.27     517.94
 41.37     485.00
 41.47     507.00
 41.57     455.00
 41.67     487.00
 41.77     466.74
 41.87     469.97
 41.97     502.00
 42.07     543.37
 42.17     519.31
 42.27     539.39
 42.37     547.00
 42.47     513.00
 42.57     571.00
 42.67     560.00
 42.77     616.00
 42.87     647.05
 42.97     598.00
 43.07     541.00
 43.17     526.00
 43.27     511.00
 43.37     495.00
 43.47     508.00
 43.57     463.23
 43.67     449.00
 43.77     478.39
 43.87     472.30
 43.97     511.00
 44.07     491.00
 44.17     535.03
 44.27     493.00
 44.37     515.00
 44.47     528.00
 44.57     524.03
 44.67     475.00
 44.77     458.83
 44.87     482.00
 44.97     493.00
 45.07     505.00
 45.17     509.00
 45.27     512.10
 45.37     494.00
 45.47     460.00
 45.57     526.27
 45.67     486.00
 45.77     465.67
 45.87     515.08
 45.97     491.53
 46.07     496.00
 46.17     519.93
 46.27     497.32
 46.37     477.30
 46.47     465.73
 46.57     533.00
 46.67     511.07
 46.77     497.00
 46.87     527.00
 46.97     475.02
 47.07     533.52
 47.17     522.00
 47.27     496.00
 47.37     502.00
 47.47     544.19
 47.57     562.00
 47.67     522.87
 47.77     567.00
 47.87     590.00
 47.97     577.00
 48.07     577.00
 48.17     576.00
 48.27     570.00
 48.37     569.00
 48.47     580.80
 48.57     551.00
 48.67     519.00
 48.77     515.97
 48.87     521.00
 48.97     521.00
 49.07     532.46
 49.17     529.00
 49.27     567.00
 49.37     579.00
 49.47     632.00
 49.57     633.00
 49.67     779.22
 49.77     954.00
 49.87    1219.00
 49.97    1574.00
 50.07    1972.25
 50.17    2231.43
 50.27    2389.00
 50.37    2334.00
 50.47    1967.00
 50.57    1588.45
 50.67    1236.95
 50.77     959.00
 50.87     766.11
 50.97     722.03
 51.07     682.86
 51.17     640.00
 51.27     644.66
 51.37     547.24
 51.47     609.58
 51.57     573.36
 51.67     547.00
 51.77     551.07
 51.87     555.00
 51.97     543.00
 52.07     538.00
 52.17     566.17
 52.27     584.00
 52.37     505.16
 52.47     559.00
 52.57     585.89
 52.67     571.00
 52.77     619.00
 52.87     640.00
 52.97     644.18
 53.07     712.15
 53.17     847.00
 53.27     906.74
 53.37    1033.00
 53.47    1119.00
 53.57    1137.00
 53.67    1214.00
 53.77    1110.00
 53.87     941.00
 53.97     868.00
 54.07     728.42
 54.17     675.00
 54.27     668.00
 54.37     610.00
 54.47     588.00
 54.57     604.00
 54.67     530.82
 54.77     590.00
 54.87     504.92
 54.97     583.86
 55.07     519.00
 55.17     571.00
 55.27     614.00
 55.37     548.00
 55.47     600.00
 55.57     609.43
 55.67     602.00
 55.77     606.00
 55.87     585.81
 55.97     647.00
 56.07     652.13
 56.17     728.00
 56.27     847.00
 56.37    1055.65
 56.47    1324.05
 56.57    1599.95
 56.67    1949.00
 56.77    2323.00
 56.87    2441.00
 56.97    2564.00
 57.07    2414.00
 57.17    2280.00
 57.27    1954.00
 57.37    1625.57
 57.47    1321.15
 57.57    1010.00
 57.67     933.84
 57.77     841.00
 57.87     744.00
 57.97     731.00
 58.07     732.00
 58.17     668.52
 58.27     724.00
 58.37     732.00
 58.47     861.00
 58.57     942.29
 58.67     984.00
 58.77    1097.00
 58.87    1206.00
 58.97    1208.64
 59.07    1293.00
 59.17    1357.00
 59.27    1380.00
 59.37    1179.00
 59.47    1193.88
 59.57    1246.00
 59.67    1231.00
 59.77    1155.00
 59.87    1266.00
 59.97    1299.30
 60.07    1349.57
 60.17    1447.00
 60.27    1524.00
 60.37    1463.00
 60.47    1475.49
 60.57    1411.00
 60.67    1243.00
 60.77    1055.00
 60.87     948.61
 60.97     850.67
 61.07     723.00
 61.17     688.00
 61.27     634.00
 61.37     656.00
 61.47     681.00
 61.57     764.69
 61.67     777.00
 61.77     907.52
 61.87     950.00
 61.97    1086.00
 62.07    1220.00
 62.17    1309.00
 62.27    1364.36
 62.37    1331.00
 62.47    1275.00
 62.57    1102.00
 62.67     990.00
 62.77     858.00
 62.87     716.00
 62.97     696.47
 63.07     621.82
 63.17     575.00
 63.27     637.00
 63.37     574.14
 63.47     609.00
 63.57     557.95
 63.67     561.00
 63.77     592.00
 63.87     618.00
 63.97     656.00
 64.07     615.00
 64.17     742.00
 64.27     770.00
 64.37     831.00
 64.47     886.52
 64.57     937.00
 64.67    1026.00
 64.77     951.00
 64.87    1017.19
 64.97     903.36
 65.07     943.92
 65.17     815.00
 65.27     787.00
 65.37     714.00
 65.47     670.00
 65.57     629.23
 65.67     573.00
 65.77     584.00
 65.87     549.00
 65.97     548.00
 66.07     588.00
 66.17     587.05
 66.27     545.70
 66.37     554.00
 66.47     557.00
 66.57     543.00
 66.67     563.00
 66.77     549.00
 66.87     552.00
 66.97     588.20
 67.07     643.36
 67.17     651.60
 67.27     728.00
 67.37     877.85
 67.47     948.00
 67.57    1154.00
 67.67    1309.00
 67.77    1580.75
 67.87    1802.00
 67.97    2111.00
 68.07    2219.61
 68.17    2363.00
 68.27    2297.28
 68.37    2144.97
 68.47    1908.03
 68.57    1738.24
 68.67    1533.92
 68.77    1286.00
 68.87    1101.08
 68.97     875.00
 69.07     822.00
 69.17     674.86
 69.27     680.51
 69.37     675.03
 69.47     572.00
 69.57     641.00
 69.67     553.00
 69.77     536.67
 69.87     584.30
 69.97     557.02
 70.07     611.00
 70.17     605.13
 70.27     571.00
 70.37     579.00
 70.47     538.16
 70.57     577.00
 70.67     572.00
 70.77     575.00
 70.87     582.00
 70.97     629.18
 71.07     619.00
 71.17     688.00
 71.27     829.00
 71.37     874.00
 71.47    1060.06
 71.57    1099.00
 71.67    1314.00
 71.77    1496.00
 71.87    1581.00
 71.97    1769.19
 72.07    1881.04
 72.17    1841.00
 72.27    1819.00
 72.37    1736.00
 72.47    1566.00
 72.57    1448.00
 72.67    1315.00
 72.77    1108.00
 72.87     927.10
 72.97     860.00
 73.07     809.00
 73.17     746.46
 73.27     690.00
 73.37     667.00
 73.47     647.00
 73.57     604.00
 73.67     614.00
 73.77     652.00
 73.87     569.01
 73.97     600.00
 74.07     586.00
 74.17     583.60
 74.27     567.00
 74.37     597.00
 74.47     627.37
 74.57     569.00
 74.67     603.00
 74.77     638.00
 74.87     524.66
 74.97     632.00
 75.07     591.00
 75.17     594.00
 75.27     525.70
 75.37     533.43
 75.47     561.61
 75.57     571.04
 75.67     513.00
 75.77     594.00
 75.87     597.00
 75.97     569.00
 76.07     633.64
 76.17     637.00
 76.27     660.00
 76.37     696.96
 76.47     686.00
 76.57     678.00
 76.67     740.00
 76.77     708.00
 76.87     690.00
 76.97     630.00
 77.07     614.88
 77.17     641.00
 77.27     612.00
 77.37     625.60
 77.47     592.38
 77.57     528.24
 77.67     487.00
 77.77     517.00
 77.87     560.93
 77.97     552.00
 78.07     552.58
 78.17     506.00
 78.27     474.00
 78.37     495.03
 78.47     548.00
 78.57     496.65
 78.67     509.00
 78.77     506.00
 78.87     543.00
 78.97     507.46
 79.07     492.00
 79.17     501.00
 79.27     474.46
 79.37     486.00
 79.47     469.00
 79.57     490.10
 79.67     543.00
 79.77     482.00
 79.87     568.15
 79.97     549.00
 80.07     552.21
 80.17     527.00
 80.27     539.70
 80.37     562.31
 80.47     536.00
 80.57     566.91
 80.67     599.00
 80.77     659.26
 80.87     615.45
 80.97     681.00
 81.07     733.53
 81.17     620.00
 81.27     686.69
 81.37     744.00
 81.47     752.00
 81.57     744.22
 81.67     746.00
 81.77     737.00
 81.87     720.00
 81.97     713.00
 82.07     702.00
 82.17     660.00
 82.27     678.87
 82.37     657.00
 82.47     623.43
 82.57     607.00
 82.67     630.00
 82.77     529.00
 82.87     566.89
 82.97     552.00
 83.07     529.00
 83.17     548.00
 83.27     526.00
 83.37     585.83
 83.47     506.27
 83.57     542.00
 83.67     525.53
 83.77     555.00
 83.87     547.00
 83.97     538.00
 84.07     563.79
 84.17     557.64
 84.27     532.00
 84.37     554.00
 84.47     520.00
 84.57     534.00
 84.67     569.00
 84.77     552.00
 84.87     552.00
 84.97     550.00
 85.07     518.00
 85.17     499.50
 85.27     470.00
 85.37     494.23
 85.47     497.00
 85.57     528.00
 85.67     512.62
 85.77     481.29
 85.87     468.70
 85.97     516.00
 86.07     495.46
 86.17     524.00
 86.27     501.00
 86.37     507.97
 86.47     540.57
 86.57     566.00
 86.67     546.00
 86.77     538.53
 86.87     610.00
 86.97     565.00
 87.07     592.00
 87.17     584.01
 87.27     593.00
 87.37     634.59
 87.47     569.97
 87.57     617.00
 87.67     646.00
 87.77     593.96
 87.87     651.00
 87.97     642.00
 88.07     614.94
 88.17     620.00
 88.27     627.00
 88.37     526.00
 88.47     571.00
 88.57     599.00
 88.67     540.00
 88.77     601.00
 88.87     568.00
 88.97     556.00
 89.07     534.75
 89.17     588.00
 89.27     614.41
 89.37     626.00
 89.47     551.01
 89.57     617.05
 89.67     585.00
 89.77     627.71
 89.87     611.64
 89.97     545.64
 90.07     529.00
 90.17     597.20
 90.27     586.00
 90.37     515.00
 90.47     516.64
 90.57     558.37
 90.67     503.40
 90.77     531.00
 90.87     517.31
 90.97     547.99
 91.07     513.00
 91.17     553.33
 91.27     523.20
 91.37     502.00
 91.47     529.00
 91.57     481.89
 91.67     536.00
 91.77     521.00
 91.87     540.00
 91.97     535.53
 92.07     555.00
 92.17     559.00
 92.27     537.00
 92.37     563.00
 92.47     578.00
 92.57     585.00
 92.67     609.00
 92.77     669.00
 92.87     627.00
 92.97     627.67
 93.07     675.65
 93.17     744.00
 93.27     686.78
 93.37     787.94
 93.47     790.00
 93.57     806.00
 93.67     795.02
 93.77     826.00
 93.87     803.93
 93.97     773.00
 94.07     841.37
 94.17     869.83
 94.27     832.00
 94.37     870.00
 94.47     818.57
 94.57     908.00
 94.67     907.00
 94.77     907.00
 94.87     915.00
 94.97     938.00
 95.07     841.00
 95.17     906.00
 95.27     841.00
 95.37     849.00
 95.47     810.00
 95.57     772.00
 95.67     763.00
 95.77     678.65
 95.87     711.00
 95.97     724.00
 96.07     677.10
 96.17     668.00
 96.27     750.97
 96.37     737.00
 96.47     731.00
 96.57     773.11
 96.67     821.22
 96.77     902.35
 96.87     935.00
 96.97    1048.00
 97.07    1103.00
 97.17    1240.89
 97.27    1319.31
 97.37    1322.00
 97.47    1332.34
 97.57    1401.82
 97.67    1475.00
 97.77    1383.00
 97.87    1363.00
 97.97    1292.00
 98.07    1297.54
 98.17    1209.61
 98.27    1240.86
 98.37    1092.00
 98.47    1012.00
 98.57     989.00
 98.67     913.00
 98.77     916.15
 98.87     849.00
 98.97     906.39
 99.07     905.50
 99.17     888.00
 99.27     856.00
 99.37     958.00
 99.47     984.77
 99.57    1019.00
 99.67    1032.93
 99.77    1148.00
 99.87    1263.00
 99.97    1427.88
100.07    1540.00
100.17    1502.79
100.27    1604.00
100.37    1747.00
100.47    1970.00
100.57    1902.00
100.67    2016.00
100.77    1936.00
100.87    1984.00
100.97    1928.00
101.07    1951.00
101.17    1962.56
101.27    1880.00
101.37    1825.00
101.47    1658.00
101.57    1643.00
101.67    1557.00
101.77    1427.62
101.87    1402.00
101.97    1376.00
102.07    1293.00
102.17    1336.00
102.27    1182.00
102.37    1148.06
102.47    1235.41
102.57    1159.52
102.67    1072.00
102.77    1102.00
102.87    1033.00
102.97    1037.00
103.07    1002.00
103.17     948.76
103.27     952.00
103.37     939.69
103.47     848.00
103.57     801.00
103.67     755.00
103.77     714.15
103.87     762.00
103.97     700.00
104.07     628.00
104.17     586.69
104.27     621.42
104.37     581.00
104.47     599.00
104.57     603.00
104.67     562.19
104.77     508.07
104.87     553.12
104.97     550.00
105.07     485.12
105.17     562.00
105.27     512.00
105.37     554.00
105.47     522.00
105.57     539.20
105.67     528.00
105.77     537.00
105.87     549.00
105.97     588.00
106.07     528.40
106.17     589.00
106.27     564.00
106.37     589.00
106.47     558.32
106.57     587.00
106.67     603.00
106.77     634.60
106.87     616.00
106.97     680.31
107.07     634.81
107.17     670.00
107.27     678.00
107.37     647.45
107.47     643.00
107.57     656.00
107.67     701.00
107.77     645.00
107.87     672.56
107.97     701.67
108.07     740.64
108.17     705.00
108.27     723.80
108.37     686.32
108.47     683.00
108.57     693.43
108.67     692.49
108.77     694.48
108.87     696.00
108.97     691.58
109.07     674.00
109.17     632.00
109.27     632.63
109.37     686.29
109.47     673.00
109.57     698.40
109.67     591.00
109.77     651.00
109.87     633.65
109.97     589.00
110.07     599.00
110.17     602.00
110.27     549.57
110.37     531.90
110.47     563.00
110.57     520.00
110.67     543.00
110.77     532.12
110.87     575.00
110.97     536.00
111.07     572.00
111.17     556.00
111.27     562.00
111.37     594.00
111.47     539.00
111.57     554.00
111.67     536.00
111.77     579.00
111.87     508.00
111.97     561.00
112.07     567.00
112.17     576.00
112.27     552.00
112.37     586.65
112.47     588.54
112.57     596.79
112.67     536.00
112.77     629.42
112.87     566.43
112.97     637.72
113.07     572.05
113.17     623.00
113.27     645.62
113.37     587.00
113.47     674.46
113.57     683.48
113.67     667.00
113.77     680.00
113.87     753.00
113.97     734.00
114.07     816.27
114.17     791.00
114.27     890.59
114.37     890.00
114.47    1083.81
114.57    1140.00
114.67    1161.00
114.77    1377.11
114.87    1558.00
114.97    1706.00
115.07    1888.00
115.17    2149.00
115.27    2398.00
115.37    2530.01
115.47    2913.97
115.57    3173.00
115.67    3565.00
115.77    4012.16
115.87    4343.40
115.97    4717.85
116.07    4912.00
116.17    5269.95
116.27    5807.05
116.37    6034.00
116.47    6163.59
116.57    6486.20
116.67    6693.78
116.77    6810.00
116.87    6802.00
116.97    6704.00
117.07    6698.00
117.17    6507.00
117.27    6156.36
117.37    5861.00
117.47    5647.00
117.57    5341.00
117.67    5051.00
117.77    4527.26
117.87    4297.67
117.97    3831.07
118.07    3586.05
118.17    3344.00
118.27    2951.00
118.37    2552.00
118.47    2257.67
118.57    2129.81
118.67    1864.00
118.77    1664.84
118.87    1499.00
118.97    1388.00
119.07    1190.00
119.17    1174.76
119.27    1005.00
119.37    1021.00
119.47     843.00
119.57     818.00
119.67     761.00
119.77     805.00
119.87     677.97
119.97     690.94
120.07     705.94
120.17     677.00
120.27     626.00
120.37     614.61
120.47     623.65
120.57     621.51
120.67     614.00
120.77     536.00
120.87     620.27
120.97     559.00
121.07     551.00
121.17     532.11
121.27     546.00
121.37     537.00
121.47     547.09
121.57     541.00
121.67     558.82
121.77     599.00
121.87     566.00
121.97     603.00
122.07     568.00
122.17     627.69
122.27     634.00
122.37     610.00
122.47     587.00
122.57     659.00
122.67     631.00
122.77     605.00
122.87     641.62
122.97     614.00
123.07     658.00
123.17     651.00
123.27     667.71
123.37     611.00
123.47     629.43
123.57     600.00
123.67     693.00
123.77     605.00
123.87     652.03
123.97     624.00
124.07     627.00
124.17     664.00
124.27     612.00
124.37     597.00
124.47     618.04
124.57     640.00
124.67     577.31
124.77     561.86
124.87     575.00
124.97     560.00
