  9.97     583.00
 10.07     597.90
 10.17     544.00
 10.27     560.52
 10.37     510.04
 10.47     628.00
 10.57     542.00
 10.67     512.39
 10.77     548.00
 10.87     540.94
 10.97     561.00
 11.07     584.00
 11.17     626.00
 11.27     589.00
 11.37     599.00
 11.47     561.00
 11.57     587.00
 11.67     552.83
 11.77     622.00
 11.87     591.33
 11.97     625.00
 12.07     646.00
 12.17     682.00
 12.27     706.34
 12.37     654.00
 12.47     613.42
 12.57     576.92
 12.67     600.00
 12.77     544.00
 12.87     551.00
 12.97     552.00
 13.07     539.00
 13.17     535.00
 13.27     603.00
 13.37     538.00
 13.47     544.00
 13.57     571.00
 13.67     556.99
 13.77     591.74
 13.87     577.00
 13.97     558.00
 14.07     538.82
 14.17     587.00
 14.27     547.00
 14.37     556.71
 14.47     544.33
 14.57     546.00
 14.67     599.58
 14.77     564.00
 14.87     562.00
 14.97     583.09
 15.07     544.50
 15.17     520.39
 15.27     539.88
 15.37     544.03
 15.47     550.00
 15.57     534.00
 15.67     566.00
 15.77     540.00
 15.87     545.00
 15.97     564.00
 16.07     608.00
 16.17     543.00
 16.27     575.00
 16.37     555.00
 16.47     514.00
 16.57     565.00
 16.67     533.00
 16.77     546.00
 16.87     533.00
 16.97     551.00
 17.07     567.00
 17.17     557.00
 17.27     540.00
 17.37     536.00
 17.47     554.49
 17.57     526.08
 17.67     550.00
 17.77     523.53
 17.87     559.00
 17.97     550.00
 18.07     548.27
 18.17     502.00
 18.27     528.00
 18.37     548.41
 18.47     537.00
 18.57     563.00
 18.67     599.96
 18.77     603.43
 18.87     562.34
 18.97     598.92
 19.07     525.00
 19.17     537.06
 19.27     505.00
 19.37     529.00
 19.47     568.00
 19.57     587.36
 19.67     548.00
 19.77     577.83
 19.87     560.00
 19.97     545.00
 20.07     525.00
 20.17     598.28
 20.27     549.00
 20.37     534.29
 20.47     583.74
 20.57     555.00
 20.67     513.00
 20.77     506.00
 20.87     546.00
 20.97     544.00
 21.07     554.30
 21.17     528.00
 21.27     526.00
 21.37     518.00
 21.47     548.79
 21.57     582.00
 21.67     550.00
 21.77     530.00
 21.87     542.39
 21.97     542.36
 22.07     520.00
 22.17     561.40
 22.27     532.83
 22.37     508.00
 22.47     563.13
 22.57     564.00
 22.67     565.86
 22.77     590.73
 22.87     544.00
 22.97     540.00
 23.07     577.00
 23.17     545.00
 23.27     559.00
 23.37     570.00
 23.47     562.18
 23.57     532.90
 23.67     545.00
 23.77     568.00
 23.87     579.69
 23.97     556.00
 24.07     597.20
 24.17     592.14
 24.27     549.01
 24.37     584.00
 24.47     584.00
 24.57     591.00
 24.67     611.10
 24.77     658.00
 24.87     595.89
 24.97     622.95
 25.07     629.00
 25.17     555.13
 25.27     543.00
 25.37     603.00
 25.47     585.00
 25.57     567.00
 25.67     596.00
 25.77     572.59
 25.87     557.67
 25.97     567.00
 26.07     560.00
 26.17     564.00
 26.27     587.64
 26.37     563.00
 26.47     506.01
 26.57     510.00
 26.67     540.00
 26.77     564.00
 26.87     547.00
 26.97     549.00
 27.07     589.00
 27.17     580.00
 27.27     542.00
 27.37     561.00
 27.47     550.81
 27.57     559.00
 27.67     580.00
 27.77     618.00
 27.87     599.00
 27.97     638.00
 28.07     715.00
 28.17     829.00
 28.27     956.94
 28.37     904.00
 28.47     821.65
 28.57     777.00
 28.67     722.00
 28.77     707.00
 28.87     730.11
 28.97     747.00
 29.07     791.00
 29.17     773.00
 29.27     667.00
 29.37     607.00
 29.47     585.77
 29.57     590.00
 29.67     524.71
 29.77     605.00
 29.87     588.00
 29.97     510.27
 30.07     586.00
 30.17     524.09
 30.27     585.00
 30.37     522.22
 30.47     561.83
 30.57     547.33
 30.67     590.50
 30.77     572.00
 30.87     630.00
 30.97     618.00
 31.07     620.00
 31.17     610.00
 31.27     583.41
 31.37     505.00
 31.47     550.00
 31.57     540.09
 31.67     543.00
 31.77     512.41
 31.87     522.59
 31.97     542.00
 32.07     538.00
 32.17     483.35
 32.27     558.54
 32.37     484.13
 32.47     569.64
 32.57     581.00
 32.67     564.00
 32.77     565.70
 32.87     489.00
 32.97     487.00
 33.07     514.32
 33.17     522.00
 33.27     533.51
 33.37     556.81
 33.47     517.25
 33.57     566.00
 33.67     606.42
 33.77     686.00
 33.87     748.14
 33.97     886.00
 34.07     979.00
 34.17    1077.33
 34.27     963.00
 34.37     882.10
 34.47     714.00
 34.57     629.00
 34.67     629.06
 34.77     586.30
 34.87     538.58
 34.97     556.00
 35.07     569.00
 35.17     552.00
 35.27     542.00
 35.37     498.38
 35.47     527.00
 35.57     530.00
 35.67     471.07
 35.77     486.20
 35.87     573.00
 35.97     526.47
 36.07     502.00
 36.17     474.00
 36.27     487.00
 36.37     549.03
 36.47     488.00
 36.57     482.00
 36.67     507.00
 36.77     474.00
 36.87     471.04
 36.97     512.42
 37.07     525.02
 37.17     528.00
 37.27     541.48
 37.37     510.00
 37.47     511.00
 37.57     542.72
 37.67     554.00
 37.77     493.00
 37.87     510.53
 37.97     550.00
 38.07     475.94
 38.17     530.12
 38.27     502.00
 38.37     513.00
 38.47     488.00
 38.57     491.00
 38.67     472.00
 38.77     498.00
 38.87     486.00
 38.97     505.34
 39.07     525.84
 39.17     480.00
 39.27     455.00
 39.37     479.00
 39.47     505.87
 39.57     536.74
 39.67     440.00
 39.77     474.00
 39.87     480.83
 39.97     497.00
 40.07     512.00
 40.17     467.89
 40.27     466.00
 40.37     478.00
 40.47     503.00
 40.57     508.00
 40.67     476.16
 40.77     484.13
 40.87     492.00
 40.97     497.51
 41.07     514.46
 41.17     503.58
 41.27     529.60
 41.37     493.15
 41.47     513.00
 41.57     456.44
 41.67     484.00
 41.77     507.00
 41.87     540.02
 41.97     506.19
 42.07     485.00
 42.17     516.00
 42.27     505.40
 42.37     571.00
 42.47     554.00
 42.57     572.00
 42.67     584.00
 42.77     599.13
 42.87     609.72
 42.97     631.16
 43.07     607.51
 43.17     509.00
 43.27     510.99
 43.37     486.00
 43.47     532.01
 43.57     530.00
 43.67     463.00
 43.77     477.00
 43.87     446.00
 43.97     493.00
 44.07     488.88
 44.17     453.36
 44.27     503.00
 44.37     511.00
 44.47     498.80
 44.57     518.54
 44.67     454.44
 44.77     469.00
 44.87     523.14
 44.97     455.91
 45.07     469.88
 45.17     496.47
 45.27     484.25
 45.37     473.67
 45.47     537.00
 45.57     449.04
 45.67     462.00
 45.77     479.00
 45.87     477.00
 45.97     470.00
 46.07     529.17
 46.17     467.00
 46.27     492.00
 46.37     515.44
 46.47     487.46
 46.57     510.00
 46.67     488.00
 46.77     511.00
 46.87     509.00
 46.97     498.00
 47.07     502.85
 47.17     511.00
 47.27     462.24
 47.37     479.87
 47.47     531.00
 47.57     503.00
 47.67     571.62
 47.77     574.00
 47.87     585.00
 47.97     573.00
 48.07     615.00
 48.17     564.59
 48.27     525.94
 48.37     543.00
 48.47     546.23
 48.57     537.05
 48.67     533.00
 48.77     518.54
 48.87     509.00
 48.97     525.00
 49.07     526.00
 49.17     516.00
 49.27     546.00
 49.37     529.00
 49.47     603.14
 49.57     689.12
 49.67     721.00
 49.77     869.77
 49.87    1144.00
 49.97    1470.00
 50.07    1830.00
 50.17    2204.73
 50.27    2314.03
 50.37    2252.00
 50.47    2111.00
 50.57    1829.00
 50.67    1351.00
 50.77    1034.00
 50.87     803.00
 50.97     697.00
 51.07     681.00
 51.17     705.00
 51.27     652.86
 51.37     608.00
 51.47     537.38
 51.57     542.00
 51.67     590.40
 51.77     550.09
 51.87     573.34
 51.97     535.00
 52.07     496.78
 52.17     483.47
 52.27     554.00
 52.37     548.89
 52.47     570.02
 52.57     536.00
 52.67     529.14
 52.77     603.59
 52.87     641.00
 52.97     695.00
 53.07     704.00
 53.17     773.00
 53.27     883.00
 53.37     965.00
 53.47    1101.00
 53.57    1225.84
 53.67    1112.93
 53.77    1128.17
 53.87    1009.46
 53.97     866.00
 54.07     795.53
 54.17     723.00
 54.27     626.53
 54.37     627.00
 54.47     614.00
 54.57     557.00
 54.67     612.00
 54.77     571.38
 54.87     522.00
 54.97     506.00
 55.07     498.00
 55.17     577.00
 55.27     561.00
 55.37     531.32
 55.47     568.00
 55.57     594.71
 55.67     527.00
 55.77     607.00
 55.87     549.94
 55.97     606.00
 56.07     650.00
 56.17     690.00
 56.27     786.01
 56.37     973.90
 56.47    1164.00
 56.57    1514.85
 56.67    1767.62
 56.77    2083.00
 56.87    2389.09
 56.97    2520.00
 57.07    2545.00
 57.17    2234.53
 57.27    2097.21
 57.37    1749.84
 57.47    1329.74
 57.57    1064.00
 57.67     938.00
 57.77     817.00
 57.87     830.00
 57.97     680.47
 58.07     648.20
 58.17     661.00
 58.27     723.83
 58.37     733.00
 58.47     858.79
 58.57     864.00
 58.67     961.00
 58.77     985.64
 58.87    1152.00
 58.97    1233.46
 59.07    1200.90
 59.17    1357.00
 59.27    1273.00
 59.37    1279.00
 59.47    1258.00
 59.57    1191.00
 59.67    1182.00
 59.77    1235.00
 59.87    1242.00
 59.97    1157.71
 60.07    1296.62
 60.17    1428.00
 60.27    1575.00
 60.37    1521.00
 60.47    1466.06
 60.57    1430.31
 60.67    1197.12
 60.77    1045.75
 60.87     899.00
 60.97     823.00
 61.07     747.00
 61.17     724.00
 61.27     636.00
 61.37     677.00
 61.47     641.00
 61.57     709.24
 61.67     720.00
 61.77     841.97
 61.87     930.00
 61.97    1049.00
 62.07    1202.00
 62.17    1287.76
 62.27    1358.00
 62.37    1264.00
 62.47    1264.00
 62.57    1205.41
 62.67    1014.00
 62.77     892.00
 62.87     783.00
 62.97     702.00
 63.07     636.00
 63.17     633.96
 63.27     554.65
 63.37     577.00
 63.47     576.00
 63.57     606.39
 63.67     590.00
 63.77     564.93
 63.87     562.00
 63.97     572.23
 64.07     656.00
 64.17     711.00
 64.27     803.00
 64.37     852.01
 64.47     843.00
 64.57     950.15
 64.67    1029.00
 64.77     992.00
 64.87     985.00
 64.97     970.00
 65.07     921.00
 65.17     914.00
 65.27     850.27
 65.37     692.00
 65.47     710.63
 65.57     660.45
 65.67     643.00
 65.77     620.00
 65.87     584.70
 65.97     596.20
 66.07     582.00
 66.17     525.97
 66.27     546.57
 66.37     546.00
 66.47     579.00
 66.57     604.00
 66.67     590.66
 66.77     546.00
 66.87     625.02
 66.97     567.73
 67.07     606.20
 67.17     628.00
 67.27     706.00
 67.37     813.57
 67.47     906.00
 67.57    1032.00
 67.67    1184.00
 67.77    1592.00
 67.87    1815.00
 67.97    1954.75
 68.07    2133.50
 68.17    2351.00
 68.27    2376.00
 68.37    2275.00
 68.47    2140.63
 68.57    1909.00
 68.67    1707.00
 68.77    1395.00
 68.87    1182.00
 68.97    1013.00
 69.07     875.17
 69.17     767.00
 69.27     696.00
 69.37     658.00
 69.47     667.00
 69.57     615.88
 69.67     584.71
 69.77     571.81
 69.87     575.00
 69.97     520.67
 70.07     547.63
 70.17     562.00
 70.27     552.67
 70.37     529.00
 70.47     576.00
 70.57     588.00
 70.67     541.00
 70.77     582.00
 70.87     569.00
 70.97     609.00
 71.07     639.00
 71.17     684.00
 71.27     708.42
 71.37     824.00
 71.47     930.00
 71.57    1014.00
 71.67    1160.82
 71.77    1384.00
 71.87    1618.09
 71.97    1734.00
 72.07    1894.46
 72.17    1910.00
 72.27    1881.24
 72.37    1789.00
 72.47    1567.00
 72.57    1481.00
 72.67    1342.44
 72.77    1174.00
 72.87    1032.00
 72.97     908.00
 73.07     795.43
 73.17     796.00
 73.27     658.00
 73.37     692.00
 73.47     655.00
 73.57     605.00
 73.67     637.35
 73.77     582.57
 73.87     591.92
 73.97     596.77
 74.07     573.00
 74.17     536.00
 74.27     600.10
 74.37     598.80
 74.47     589.82
 74.57     609.00
 74.67     524.57
 74.77     594.00
 74.87     611.40
 74.97     611.00
 75.07     609.00
 75.17     548.63
 75.27     598.00
 75.37     618.00
 75.47     500.77
 75.57     503.62
 75.67     581.72
 75.77     514.15
 75.87     553.00
 75.97     593.43
 76.07     652.00
 76.17     651.00
 76.27     578.00
 76.37     602.58
 76.47     691.72
 76.57     698.00
 76.67     729.00
 76.77     701.00
 76.87     699.00
 76.97     671.00
 77.07     687.53
 77.17     639.00
 77.27     585.00
 77.37     577.96
 77.47     551.20
 77.57     560.00
 77.67     532.89
 77.77     538.00
 77.87     531.00
 77.97     500.78
 78.07     525.00
 78.17     486.49
 78.27     489.00
 78.37     462.00
 78.47     524.00
 78.57     536.08
 78.67     536.83
 78.77     495.68
 78.87     534.08
 78.97     496.00
 79.07     488.15
 79.17     469.38
 79.27     466.00
 79.37     494.00
 79.47     513.00
 79.57     521.72
 79.67     521.00
 79.77     518.00
 79.87     531.00
 79.97     560.19
 80.07     523.04
 80.17     540.00
 80.27     562.65
 80.37     524.46
 80.47     534.00
 80.57     563.00
 80.67     569.00
 80.77     590.00
 80.87     668.96
 80.97     659.18
 81.07     674.00
 81.17     677.00
 81.27     715.81
 81.37     685.00
 81.47     709.00
 81.57     706.00
 81.67     735.00
 81.77     761.00
 81.87     667.27
 81.97     672.00
 82.07     689.00
 82.17     625.00
 82.27     604.78
 82.37     628.00
 82.47     614.00
 82.57     621.37
 82.67     567.00
 82.77     550.56
 82.87     577.00
 82.97     554.00
 83.07     570.44
 83.17     570.00
 83.27     555.00
 83.37     519.28
 83.47     531.00
 83.57     481.00
 83.67     508.90
 83.77     578.87
 83.87     554.14
 83.97     580.76
 84.07     541.00
 84.17     580.01
 84.27     506.00
 84.37     583.69
 84.47     530.00
 84.57     539.00
 84.67     531.00
 84.77     559.00
 84.87     515.24
 84.97     511.00
 85.07     519.00
 85.17     497.00
 85.27     514.82
 85.37     490.00
 85.47     484.00
 85.57     502.00
 85.67     501.00
 85.77     530.00
 85.87     538.00
 85.97     547.92
 86.07     476.00
 86.17     515.00
 86.27     537.00
 86.37     509.00
 86.47     537.00
 86.57     527.44
 86.67     528.00
 86.77     560.46
 86.87     537.00
 86.97     548.00
 87.07     578.00
 87.17     547.73
 87.27     579.71
 87.37     592.00
 87.47     637.00
 87.57     606.00
 87.67     605.00
 87.77     631.01
 87.87     580.32
 87.97     638.00
 88.07     561.00
 88.17     602.62
 88.27     596.00
 88.37     584.00
 88.47     557.00
 88.57     578.57
 88.67     553.00
 88.77     561.00
 88.87     568.00
 88.97     560.00
 89.07     586.00
 89.17     584.00
 89.27     599.25
 89.37     603.39
 89.47     626.76
 89.57     562.63
 89.67     599.00
 89.77     567.26
 89.87     615.82
 89.97     572.50
 90.07     559.44
 90.17     582.29
 90.27     495.00
 90.37     506.00
 90.47     572.55
 90.57     488.00
 90.67     521.00
 90.77     544.00
 90.87     502.00
 90.97     506.00
 91.07     479.86
 91.17     513.57
 91.27     544.00
 91.37     546.00
 91.47     503.00
 91.57     528.00
 91.67     491.72
 91.77     502.00
 91.87     484.00
 91.97     533.00
 92.07     536.00
 92.17     501.00
 92.27     542.00
 92.37     503.00
 92.47     594.36
 92.57     569.00
 92.67     639.00
 92.77     618.00
 92.87     634.00
 92.97     620.00
 93.07     667.90
 93.17     729.00
 93.27     728.33
 93.37     687.20
 93.47     758.63
 93.57     758.00
 93.67     816.49
 93.77     725.51
 93.87     820.00
 93.97     834.00
 94.07     808.00
 94.17     796.00
 94.27     807.00
 94.37     815.99
 94.47     864.00
 94.57     869.00
 94.67     927.00
 94.77     853.00
 94.87     833.52
 94.97     885.98
 95.07     831.00
 95.17     842.91
 95.27     834.14
 95.37     864.00
 95.47     821.00
 95.57     803.00
 95.67     740.00
 95.77     764.00
 95.87     742.00
 95.97     678.00
 96.07     720.00
 96.17     673.00
 96.27     721.00
 96.37     759.67
 96.47     738.00
 96.57     719.00
 96.67     831.00
 96.77     845.00
 96.87     928.95
 96.97    1029.93
 97.07    1081.00
 97.17    1078.52
 97.27    1249.30
 97.37    1333.29
 97.47    1310.00
 97.57    1386.00
 97.67    1463.00
 97.77    1372.61
 97.87    1391.25
 97.97    1356.00
 98.07    1315.00
 98.17    1346.24
 98.27    1274.00
 98.37    1189.00
 98.47    1153.49
 98.57    1062.00
 98.67    1021.00
 98.77     926.00
 98.87     903.00
 98.97     849.44
 99.07     852.00
 99.17     827.00
 99.27     831.00
 99.37     849.00
 99.47     955.00
 99.57     972.00
 99.67    1011.00
 99.77    1149.36
 99.87    1164.00
 99.97    1232.02
100.07    1344.00
100.17    1427.00
100.27    1617.00
100.37    1715.00
100.47    1735.00
100.57    1885.89
100.67    1901.00
100.77    1923.00
100.87    1977.31
100.97    2048.00
101.07    2004.00
101.17    1942.00
101.27    1891.13
101.37    1860.00
101.47    1748.00
101.57    1656.00
101.67    1641.00
101.77    1497.86
101.87    1459.00
101.97    1311.00
102.07    1347.00
102.17    1328.00
102.27    1253.32
102.37    1174.00
102.47    1239.00
102.57    1127.11
102.67    1137.00
102.77    1113.00
102.87    1103.03
102.97    1050.00
103.07     987.47
103.17     999.00
103.27     973.00
103.37     908.27
103.47     904.00
103.57     812.80
103.67     767.68
103.77     792.00
103.87     753.88
103.97     763.00
104.07     722.00
104.17     615.00
104.27     611.04
104.37     651.00
104.47     529.88
104.57     547.01
104.67     519.58
104.77     593.00
104.87     514.66
104.97     570.00
105.07     509.07
105.17     557.00
105.27     523.00
105.37     551.00
105.47     479.63
105.57     521.49
105.67     553.00
105.77     513.00
105.87     563.85
105.97     568.00
106.07     549.00
106.17     514.78
106.27     568.00
106.37     575.00
106.47     562.00
106.57     544.90
106.67     618.00
106.77     614.00
106.87     651.00
106.97     661.00
107.07     610.00
107.17     676.00
107.27     610.00
107.37     642.00
107.47     688.00
107.57     644.00
107.67     645.03
107.77     694.00
107.87     706.88
107.97     672.85
108.07     655.00
108.17     657.71
108.27     667.00
108.37     616.00
108.47     684.00
108.57     629.00
108.67     691.00
108.77     695.00
108.87     669.00
108.97     684.00
109.07     676.00
109.17     662.00
109.27     697.00
109.37     671.00
109.47     691.00
109.57     629.62
109.67     660.00
109.77     690.04
109.87     605.00
109.97     567.00
110.07     599.42
110.17     601.00
110.27     592.60
110.37     572.00
110.47     549.00
110.57     565.30
110.67     574.00
110.77     557.00
110.87     543.00
110.97     582.00
111.07     567.00
111.17     550.00
111.27     596.00
111.37     556.00
111.47     550.00
111.57     519.00
111.67     552.40
111.77     578.00
111.87     539.25
111.97     550.00
112.07     544.37
112.17     566.00
112.27     583.51
112.37     549.25
112.47     521.00
112.57     552.74
112.67     584.63
112.77     541.00
112.87     561.75
112.97     586.00
113.07     592.00
113.17     578.00
113.27     585.26
113.37     597.00
113.47     648.00
113.57     614.00
113.67     703.32
113.77     685.00
113.87     741.06
113.97     692.27
114.07     744.71
114.17     844.00
114.27     832.00
114.37     894.00
114.47     908.00
114.57    1021.00
114.67    1077.63
114.77    1182.00
114.87    1299.17
114.97    1438.00
115.07    1736.90
115.17    1891.80
115.27    2009.05
115.37    2424.00
115.47    2793.00
115.57    2932.00
115.67    3192.00
115.77    3617.00
115.87    3916.00
115.97    4190.44
116.07    4744.75
116.17    5080.46
116.27    5441.54
116.37    5770.00
116.47    5988.00
116.57    6262.00
116.67    6683.00
116.77    6640.10
116.87    6837.02
116.97    6838.02
117.07    6845.75
117.17    6676.34
117.27    6552.62
117.37    6256.68
117.47    6070.12
117.57    5825.00
117.67    5335.00
117.77    5050.66
117.87    4733.14
117.97    4371.19
118.07    4163.00
118.17    3691.17
118.27    3368.00
118.37    2936.95
118.47    2660.00
118.57    2415.70
118.67    2157.45
118.77    1876.00
118.87    1705.10
118.97    1486.00
119.07    1364.92
119.17    1304.35
119.27    1185.00
119.37    1077.00
119.47     959.00
119.57     913.68
119.67     873.00
119.77     746.29
119.87     777.00
119.97     701.00
120.07     705.00
120.17     642.00
120.27     667.00
120.37     621.00
120.47     657.05
120.57     586.00
120.67     574.38
120.77     604.00
120.87     618.00
120.97     545.00
121.07     557.89
121.17     581.00
121.27     561.00
121.37     559.55
121.47     615.00
121.57     593.00
121.67     580.00
121.77     586.67
121.87     574.00
121.97     563.00
122.07     588.00
122.17     548.98
122.27     631.46
122.37     580.00
122.47     572.00
122.57     570.00
122.67     670.00
122.77     598.00
122.87     663.30
122.97     621.00
123.07     622.00
123.17     662.00
123.27     592.07
123.37     611.00
123.47     581.00
123.57     648.00
123.67     610.63
123.77     602.00
123.87     660.00
123.97     634.00
124.07     641.09
124.17     577.79
124.27     650.00
124.37     602.00
124.47     595.00
124.57     559.00
124.67     579.90
124.77     537.61
124.87     577.00
124.97     593.00
