  9.97     552.00
 10.07     538.08
 10.17     540.69
 10.27     583.00
 10.37     545.35
 10.47     586.00
 10.57     626.00
 10.67     547.00
 10.77     610.00
 10.87     573.00
 10.97     598.00
 11.07     593.00
 11.17     594.00
 11.27     568.91
 11.37     550.73
 11.47     587.55
 11.57     595.00
 11.67     597.00
 11.77     638.00
 11.87     623.49
 11.97     645.00
 12.07     679.00
 12.17     750.34
 12.27     712.00
 12.37     706.56
 12.47     638.47
 12.57     615.00
 12.67     604.00
 12.77     538.00
 12.87     597.86
 12.97     563.59
 13.07     545.00
 13.17     563.00
 13.27     584.00
 13.37     528.54
 13.47     540.00
 13.57     504.00
 13.67     543.00
 13.77     556.00
 13.87     574.00
 13.97     584.08
 14.07     555.00
 14.17     535.00
 14.27     581.00
 14.37     547.54
 14.47     599.00
 14.57     572.58
 14.67     534.00
 14.77     591.00
 14.87     589.00
 14.97     588.79
 15.07     562.00
 15.17     593.13
 15.27     605.80
 15.37     575.00
 15.47     530.00
 15.57     582.00
 15.67     594.00
 15.77     555.00
 15.87     629.00
 15.97     571.00
 16.07     564.31
 16.17     523.00
 16.27     591.00
 16.37     562.00
 16.47     560.00
 16.57     556.00
 16.67     614.00
 16.77     525.36
 16.87     577.00
 16.97     590.00
 17.07     603.76
 17.17     610.00
 17.27     567.00
 17.37     561.00
 17.47     575.88
 17.57     567.00
 17.67     566.00
 17.77     508.00
 17.87     566.00
 17.97     610.21
 18.07     510.00
 18.17     505.00
 18.27     554.00
 18.37     592.00
 18.47     570.25
 18.57     545.00
 18.67     566.00
 18.77     560.14
 18.87     521.88
 18.97     566.32
 19.07     594.54
 19.17     554.00
 19.27     573.00
 19.37     539.12
 19.47     529.00
 19.57     526.00
 19.67     579.96
 19.77     525.51
 19.87     589.00
 19.97     556.00
 20.07     602.26
 20.17     570.00
 20.27     559.00
 20.37     517.09
 20.47     544.00
 20.57     542.00
 20.67     599.00
 20.77     535.00
 20.87     548.97
 20.97     594.94
 21.07     538.97
 21.17     557.00
 21.27     540.52
 21.37     523.73
 21.47     574.00
 21.57     549.00
 21.67     595.57
 21.77     509.00
 21.87     587.42
 21.97     525.73
 22.07     581.02
 22.17     552.00
 22.27     557.20
 22.37     549.00
 22.47     530.00
 22.57     559.00
 22.67     551.00
 22.77     549.91
 22.87     554.02
 22.97     578.82
 23.07     549.00
 23.17     529.09
 23.27     593.00
 23.37     518.00
 23.47     585.00
 23.57     553.22
 23.67     547.51
 23.77     542.39
 23.87     564.31
 23.97     532.00
 24.07     546.00
 24.17     592.61
 24.27     564.05
 24.37     526.33
 24.47     588.00
 24.57     555.40
 24.67     631.00
 24.77     670.00
 24.87     668.00
 24.97     568.38
 25.07     622.00
 25.17     566.00
 25.27     515.40
 25.37     525.22
 25.47     579.22
 25.57     571.22
 25.67     564.00
 25.77     564.00
 25.87     531.00
 25.97     580.00
 26.07     556.00
 26.17     566.00
 26.27     579.00
 26.37     566.00
 26.47     582.00
 26.57     578.19
 26.67     536.00
 26.77     567.00
 26.87     530.00
 26.97     516.02
 27.07     603.00
 27.17     523.00
 27.27     544.00
 27.37     527.87
 27.47     571.00
 27.57     520.69
 27.67     619.00
 27.77     582.00
 27.87     630.88
 27.97     702.65
 28.07     747.00
 28.17     846.62
 28.27     971.28
 28.37     868.00
 28.47     794.26
 28.57     718.00
 28.67     711.00
 28.77     688.05
 28.87     775.94
 28.97     829.00
 29.07     777.00
 29.17     659.00
 29.27     639.00
 29.37     636.00
 29.47     577.18
 29.57     579.00
 29.67     610.30
 29.77     581.93
 29.87     560.34
 29.97     558.29
 30.07     565.00
 30.17     575.00
 30.27     514.01
 30.37     556.00
 30.47     561.00
 30.57     565.37
 30.67     580.00
 30.77     589.00
 30.87     636.00
 30.97     640.00
 31.07     566.64
 31.17     585.69
 31.27     553.00
 31.37     522.00
 31.47     529.00
 31.57     552.00
 31.67     534.00
 31.77     494.34
 31.87     502.00
 31.97     533.38
 32.07     543.00
 32.17     521.00
 32.27     573.00
 32.37     528.87
 32.47     510.54
 32.57     538.00
 32.67     543.00
 32.77     557.00
 32.87     539.00
 32.97     568.01
 33.07     562.24
 33.17     564.00
 33.27     580.43
 33.37     584.72
 33.47     554.00
 33.57     621.90
 33.67     657.00
 33.77     756.00
 33.87     891.00
 33.97     987.00
 34.07    1078.57
 34.17    1004.00
 34.27     909.71
 34.37     733.58
 34.47     648.00
 34.57     646.00
 34.67     544.00
 34.77     511.09
 34.87     551.26
 34.97     449.00
 35.07     561.16
 35.17     504.00
 35.27     522.00
 35.37     506.17
 35.47     502.24
 35.57     490.33
 35.67     496.30
 35.77     538.58
 35.87     532.00
 35.97     505.00
 36.07     514.00
 36.17     527.92
 36.27     539.00
 36.37     514.21
 36.47     555.27
 36.57     489.86
 36.67     500.11
 36.77     491.81
 36.87     548.00
 36.97     505.00
 37.07     523.90
 37.17     500.00
 37.27     506.00
 37.37     522.00
 37.47     561.53
 37.57     526.00
 37.67     517.00
 37.77     567.49
 37.87     532.35
 37.97     512.00
 38.07     494.00
 38.17     525.00
 38.27     513.36
 38.37     477.68
 38.47     507.00
 38.57     519.42
 38.67     483.43
 38.77     549.89
 38.87     521.16
 38.97     472.88
 39.07     520.00
 39.17     472.64
 39.27     527.00
 39.37     495.00
 39.47     515.63
 39.57     543.88
 39.67     503.55
 39.77     504.38
 39.87     538.00
 39.97     511.42
 40.07     529.34
 40.17     494.77
 40.27     550.00
 40.37     507.85
 40.47     547.00
 40.57     511.15
 40.67     478.51
 40.77     521.98
 40.87     472.22
 40.97     478.00
 41.07     502.59
 41.17     523.97
 41.27     535.71
 41.37     506.00
 41.47     489.00
 41.57     483.00
 41.67     534.12
 41.77     476.31
 41.87     494.00
 41.97     510.90
 42.07     546.13
 42.17     538.00
 42.27     519.00
 42.37     585.00
 42.47     603.00
 42.57     569.00
 42.67     586.00
 42.77     615.00
 42.87     596.00
 42.97     537.69
 43.07     593.75
 43.17     521.00
 43.27     482.00
 43.37     499.12
 43.47     495.31
 43.57     499.72
 43.67     531.95
 43.77     502.93
 43.87     539.42
 43.97     466.22
 44.07     483.53
 44.17     503.00
 44.27     479.00
 44.37     487.00
 44.47     466.46
 44.57     473.44
 44.67     544.00
 44.77     490.00
 44.87     508.00
 44.97     480.00
 45.07     513.34
 45.17     471.00
 45.27     504.00
 45.37     495.00
 45.47     503.45
 45.57     468.00
 45.67     543.00
 45.77     515.00
 45.87     505.00
 45.97     539.25
 46.07     500.00
 46.17     500.00
 46.27     535.41
 46.37     506.55
 46.47     466.00
 46.57     498.00
 46.67     488.98
 46.77     497.00
 46.87     519.00
 46.97     531.00
 47.07     483.00
 47.17     536.00
 47.27     529.00
 47.37     521.19
 47.47     576.12
 47.57     546.00
 47.67     558.19
 47.77     613.50
 47.87     600.00
 47.97     591.00
 48.07     594.00
 48.17     573.00
 48.27     563.00
 48.37     541.00
 48.47     529.00
 48.57     556.46
 48.67     508.00
 48.77     521.06
 48.87     512.00
 48.97     545.00
 49.07     567.00
 49.17     580.00
 49.27     571.00
 49.37     641.69
 49.47     730.00
 49.57     761.10
 49.67     912.37
 49.77    1118.00
 49.87    1434.00
 49.97    1820.08
 50.07    2204.00
 50.17    2410.00
 50.27    2361.00
 50.37    2259.00
 50.47    1877.00
 50.57    1437.13
 50.67    1031.00
 50.77     861.40
 50.87     790.90
 50.97     679.00
 51.07     619.00
 51.17     645.48
 51.27     625.00
 51.37     572.47
 51.47     576.00
 51.57     609.00
 51.67     541.23
 51.77     559.00
 51.87     496.52
 51.97     566.00
 52.07     599.00
 52.17     512.23
 52.27     516.00
 52.37     561.17
 52.47     540.00
 52.57     546.00
 52.67     604.00
 52.77     650.00
 52.87     722.00
 52.97     693.00
 53.07     761.19
 53.17     867.00
 53.27    1066.34
 53.37    1137.00
 53.47    1183.00
 53.57    1246.81
 53.67    1079.84
 53.77     971.00
 53.87     862.40
 53.97     740.00
 54.07     656.28
 54.17     619.00
 54.27     609.00
 54.37     586.00
 54.47     596.30
 54.57     511.46
 54.67     581.26
 54.77     572.00
 54.87     543.00
 54.97     564.00
 55.07     532.09
 55.17     567.00
 55.27     561.00
 55.37     533.00
 55.47     531.00
 55.57     573.01
 55.67     592.29
 55.77     559.07
 55.87     624.00
 55.97     629.66
 56.07     666.51
 56.17     756.00
 56.27     891.00
 56.37    1115.00
 56.47    1460.00
 56.57    1835.11
 56.67    2124.00
 56.77    2313.00
 56.87    2610.00
 56.97    2682.00
 57.07    2398.00
 57.17    1950.00
 57.27    1647.22
 57.37    1333.00
 57.47    1063.25
 57.57     869.41
 57.67     764.00
 57.77     743.00
 57.87     742.00
 57.97     685.16
 58.07     666.30
 58.17     768.30
 58.27     752.00
 58.37     851.00
 58.47     924.64
 58.57    1089.00
 58.67    1113.00
 58.77    1335.99
 58.87    1450.68
 58.97    1508.00
 59.07    1451.59
 59.17    1376.47
 59.27    1362.00
 59.37    1343.47
 59.47    1262.00
 59.57    1151.63
 59.67    1134.00
 59.77    1168.26
 59.87    1133.23
 59.97    1316.00
 60.07    1424.00
 60.17    1455.10
 60.27    1564.71
 60.37    1603.00
 60.47    1380.00
 60.57    1363.00
 60.67    1082.00
 60.77     894.00
 60.87     774.00
 60.97     683.74
 61.07     646.00
 61.17     677.14
 61.27     615.37
 61.37     648.00
 61.47     692.00
 61.57     775.00
 61.67     831.00
 61.77     951.44
 61.87    1116.00
 61.97    1239.00
 62.07    1383.00
 62.17    1354.00
 62.27    1469.00
 62.37    1280.00
 62.47    1241.70
 62.57    1088.62
 62.67     965.65
 62.77     837.79
 62.87     650.00
 62.97     642.51
 63.07     633.00
 63.17     624.00
 63.27     568.00
 63.37     598.00
 63.47     575.00
 63.57     533.72
 63.67     565.00
 63.77     619.00
 63.87     663.00
 63.97     641.28
 64.07     742.00
 64.17     739.00
 64.27     775.60
 64.37     951.00
 64.47    1008.14
 64.57    1005.00
 64.67    1059.86
 64.77     979.71
 64.87     984.00
 64.97     921.00
 65.07     838.31
 65.17     823.00
 65.27     724.00
 65.37     658.00
 65.47     628.00
 65.57     649.00
 65.67     560.00
 65.77     554.00
 65.87     549.32
 65.97     547.00
 66.07     516.00
 66.17     576.00
 66.27     582.44
 66.37     538.00
 66.47     539.00
 66.57     553.00
 66.67     604.00
 66.77     571.00
 66.87     602.64
 66.97     583.00
 67.07     675.00
 67.17     695.00
 67.27     765.00
 67.37     848.00
 67.47    1025.00
 67.57    1255.00
 67.67    1484.00
 67.77    1833.00
 67.87    2150.00
 67.97    2279.00
 68.07    2479.00
 68.17    2334.78
 68.27    2337.00
 68.37    2101.00
 68.47    1791.00
 68.57    1565.00
 68.67    1324.00
 68.77    1102.23
 68.87     929.69
 68.97     765.00
 69.07     701.00
 69.17     677.48
 69.27     660.00
 69.37     618.00
 69.47     566.54
 69.57     543.88
 69.67     578.14
 69.77     563.00
 69.87     557.00
 69.97     577.77
 70.07     507.00
 70.17     581.00
 70.27     551.53
 70.37     584.83
 70.47     593.00
 70.57     566.00
 70.67     563.00
 70.77     632.00
 70.87     615.00
 70.97     623.00
 71.07     659.00
 71.17     737.73
 71.27     807.00
 71.37     986.67
 71.47    1062.00
 71.57    1211.70
 71.67    1421.26
 71.77    1638.00
 71.87    1778.44
 71.97    1855.56
 72.07    1972.17
 72.17    1929.64
 72.27    1747.00
 72.37    1619.03
 72.47    1507.00
 72.57    1361.00
 72.67    1183.57
 72.77    1008.68
 72.87     934.00
 72.97     932.94
 73.07     794.00
 73.17     740.00
 73.27     702.36
 73.37     700.00
 73.47     711.53
 73.57     613.00
 73.67     661.00
 73.77     597.00
 73.87     548.00
 73.97     555.00
 74.07     576.45
 74.17     583.40
 74.27     613.00
 74.37     660.00
 74.47     620.00
 74.57     650.00
 74.67     605.00
 74.77     601.00
 74.87     605.19
 74.97     586.88
 75.07     567.00
 75.17     568.00
 75.27     607.00
 75.37     598.00
 75.47     566.00
 75.57     600.00
 75.67     587.79
 75.77     627.00
 75.87     592.00
 75.97     668.00
 76.07     650.00
 76.17     657.87
 76.27     641.53
 76.37     671.00
 76.47     704.00
 76.57     704.18
 76.67     746.14
 76.77     647.00
 76.87     671.55
 76.97     637.00
 77.07     598.00
 77.17     611.13
 77.27     523.00
 77.37     544.01
 77.47     517.57
 77.57     558.00
 77.67     530.07
 77.77     526.00
 77.87     504.00
 77.97     529.00
 78.07     572.26
 78.17     524.00
 78.27     503.00
 78.37     545.00
 78.47     531.00
 78.57     512.65
 78.67     495.00
 78.77     494.50
 78.87     469.00
 78.97     523.00
 79.07     548.00
 79.17     501.00
 79.27     537.08
 79.37     514.82
 79.47     543.00
 79.57     541.00
 79.67     540.87
 79.77     575.00
 79.87     548.00
 79.97     551.00
 80.07     546.00
 80.17     579.00
 80.27     609.96
 80.37     541.73
 80.47     606.00
 80.57     593.00
 80.67     587.80
 80.77     685.41
 80.87     650.48
 80.97     678.00
 81.07     704.75
 81.17     743.47
 81.27     741.00
 81.37     816.00
 81.47     831.00
 81.57     749.00
 81.67     790.00
 81.77     791.00
 81.87     723.00
 81.97     659.26
 82.07     667.54
 82.17     697.59
 82.27     611.00
 82.37     615.00
 82.47     590.00
 82.57     596.00
 82.67     580.00
 82.77     572.00
 82.87     547.22
 82.97     551.00
 83.07     554.00
 83.17     562.00
 83.27     547.00
 83.37     548.00
 83.47     566.00
 83.57     526.00
 83.67     545.00
 83.77     605.79
 83.87     545.00
 83.97     547.00
 84.07     573.00
 84.17     535.91
 84.27     582.00
 84.37     538.00
 84.47     547.00
 84.57     557.00
 84.67     522.00
 84.77     537.00
 84.87     505.00
 84.97     506.64
 85.07     521.00
 85.17     519.00
 85.27     518.64
 85.37     547.44
 85.47     536.00
 85.57     536.00
 85.67     493.00
 85.77     517.56
 85.87     536.15
 85.97     560.00
 86.07     508.72
 86.17     513.00
 86.27     564.06
 86.37     518.00
 86.47     562.49
 86.57     525.00
 86.67     566.00
 86.77     605.86
 86.87     623.00
 86.97     606.23
 87.07     646.00
 87.17     676.00
 87.27     618.00
 87.37     610.00
 87.47     631.61
 87.57     672.00
 87.67     600.00
 87.77     626.00
 87.87     613.62
 87.97     604.00
 88.07     653.00
 88.17     565.36
 88.27     591.00
 88.37     597.38
 88.47     588.00
 88.57     528.00
 88.67     554.00
 88.77     571.73
 88.87     568.24
 88.97     604.00
 89.07     605.00
 89.17     638.41
 89.27     640.00
 89.37     636.69
 89.47     653.00
 89.57     603.48
 89.67     611.35
 89.77     579.00
 89.87     563.31
 89.97     579.65
 90.07     505.00
 90.17     557.00
 90.27     485.00
 90.37     503.04
 90.47     510.54
 90.57     588.00
 90.67     494.00
 90.77     512.09
 90.87     543.45
 90.97     523.00
 91.07     550.00
 91.17     497.74
 91.27     494.00
 91.37     500.00
 91.47     542.04
 91.57     578.00
 91.67     529.60
 91.77     553.11
 91.87     577.00
 91.97     533.00
 92.07     572.00
 92.17     534.00
 92.27     584.00
 92.37     625.00
 92.47     607.00
 92.57     580.00
 92.67     636.00
 92.77     638.00
 92.87     712.00
 92.97     748.39
 93.07     777.34
 93.17     753.20
 93.27     780.00
 93.37     793.00
 93.47     797.00
 93.57     797.38
 93.67     832.94
 93.77     852.00
 93.87     870.00
 93.97     845.00
 94.07     881.54
 94.17     895.37
 94.27     825.00
 94.37     809.13
 94.47     916.00
 94.57     916.00
 94.67     893.00
 94.77     973.00
 94.87     894.12
 94.97     949.00
 95.07     832.26
 95.17     869.00
 95.27     864.00
 95.37     793.00
 95.47     776.00
 95.57     762.00
 95.67     684.89
 95.77     746.00
 95.87     689.00
 95.97     670.12
 96.07     716.00
 96.17     703.38
 96.27     691.56
 96.37     761.00
 96.47     773.50
 96.57     792.00
 96.67     911.00
 96.77     964.26
 96.87    1093.00
 96.97    1125.00
 97.07    1169.00
 97.17    1296.00
 97.27    1346.16
 97.37    1411.53
 97.47    1469.00
 97.57    1490.00
 97.67    1427.00
 97.77    1384.00
 97.87    1343.00
 97.97    1293.96
 98.07    1207.00
 98.17    1113.67
 98.27    1107.33
 98.37    1038.76
 98.47     906.58
 98.57     895.00
 98.67     844.00
 98.77     768.00
 98.87     840.00
 98.97     805.00
 99.07     827.00
 99.17     942.00
 99.27     894.00
 99.37     920.41
 99.47     966.00
 99.57    1103.46
 99.67    1214.00
 99.77    1292.00
 99.87    1371.00
 99.97    1564.15
100.07    1635.00
100.17    1730.00
100.27    1901.00
100.37    1961.00
100.47    2086.00
100.57    2120.00
100.67    2121.00
100.77    2108.00
100.87    2064.00
100.97    1991.00
101.07    1974.97
101.17    1853.00
101.27    1716.00
101.37    1673.00
101.47    1674.00
101.57    1547.85
101.67    1486.83
101.77    1378.00
101.87    1326.00
101.97    1227.00
102.07    1175.48
102.17    1185.00
102.27    1158.00
102.37    1143.00
102.47    1082.00
102.57    1038.98
102.67    1014.00
102.77    1044.00
102.87    1060.00
102.97     932.00
103.07     907.00
103.17     859.00
103.27     837.69
103.37     810.00
103.47     786.00
103.57     730.00
103.67     742.82
103.77     633.64
103.87     599.00
103.97     615.70
104.07     590.41
104.17     613.07
104.27     584.00
104.37     552.55
104.47     532.00
104.57     572.00
104.67     551.00
104.77     525.00
104.87     504.80
104.97     536.57
105.07     525.83
105.17     587.00
105.27     537.85
105.37     538.96
105.47     574.00
105.57     537.00
105.67     545.00
105.77     559.00
105.87     538.00
105.97     535.84
106.07     561.10
106.17     622.83
106.27     582.00
106.37     559.00
106.47     576.00
106.57     578.00
106.67     617.00
106.77     598.00
106.87     644.00
106.97     717.70
107.07     661.00
107.17     681.91
107.27     695.46
107.37     672.00
107.47     680.00
107.57     704.31
107.67     698.00
107.77     658.06
107.87     661.86
107.97     661.12
108.07     663.00
108.17     670.00
108.27     665.00
108.37     711.09
108.47     722.00
108.57     660.00
108.67     692.00
108.77     722.00
108.87     735.96
108.97     658.92
109.07     666.17
109.17     693.33
109.27     688.00
109.37     672.00
109.47     643.71
109.57     663.00
109.67     621.61
109.77     588.00
109.87     618.00
109.97     601.00
110.07     587.00
110.17     536.00
110.27     567.00
110.37     545.00
110.47     547.52
110.57     507.85
110.67     514.00
110.77     551.00
110.87     548.00
110.97     547.00
111.07     492.67
111.17     575.00
111.27     537.46
111.37     519.40
111.47     543.00
111.57     549.00
111.67     534.00
111.77     587.45
111.87     547.68
111.97     564.00
112.07     559.88
112.17     586.06
112.27     566.56
112.37     570.00
112.47     615.93
112.57     566.00
112.67     626.88
112.77     644.99
112.87     647.20
112.97     626.00
113.07     696.00
113.17     712.65
113.27     669.00
113.37     751.74
113.47     784.00
113.57     869.00
113.67     773.00
113.77     892.00
113.87     945.00
113.97     933.00
114.07     978.00
114.17    1044.57
114.27    1094.00
114.37    1161.00
114.47    1250.26
114.57    1415.00
114.67    1584.63
114.77    1605.26
114.87    1853.00
114.97    2141.00
115.07    2352.00
115.17    2557.00
115.27    2828.00
115.37    3054.00
115.47    3442.00
115.57    3755.00
115.67    4139.00
115.77    4474.00
115.87    4815.69
115.97    5258.00
116.07    5672.00
116.17    6063.59
116.27    6184.00
116.37    6488.60
116.47    6682.00
116.57    6849.82
116.67    7028.30
116.77    6753.00
116.87    7029.00
116.97    6572.00
117.07    6302.91
117.17    6175.64
117.27    5801.83
117.37    5329.00
117.47    5032.25
117.57    4606.00
117.67    4390.00
117.77    3920.00
117.87    3597.00
117.97    3346.00
118.07    2854.00
118.17    2505.00
118.27    2284.43
118.37    2061.86
118.47    1777.00
118.57    1536.00
118.67    1353.00
118.77    1227.00
118.87    1125.90
118.97    1048.00
119.07     948.00
119.17     869.00
119.27     942.00
119.37     780.00
119.47     787.00
119.57     696.00
119.67     692.00
119.77     642.51
119.87     622.00
119.97     648.00
120.07     635.00
120.17     579.00
120.27     590.00
120.37     561.00
120.47     575.00
120.57     594.70
120.67     557.00
120.77     566.00
120.87     579.00
120.97     548.10
121.07     612.00
121.17     582.59
121.27     576.00
121.37     523.00
121.47     559.00
121.57     609.00
121.67     615.00
121.77     642.61
121.87     629.00
121.97     585.00
122.07     582.84
122.17     573.80
122.27     588.87
122.37     614.00
122.47     672.00
122.57     608.00
122.67     645.00
122.77     656.61
122.87     658.00
122.97     597.00
123.07     640.00
123.17     630.00
123.27     698.00
123.37     658.00
123.47     649.20
123.57     606.65
123.67     663.00
123.77     626.00
123.87     682.00
123.97     625.00
124.07     607.00
124.17     598.00
124.27     576.00
124.37     585.79
124.47     581.82
124.57     660.00
124.67     584.89
124.77     572.95
124.87     618.00
124.97     590.51
