  9.97     685.46
 10.07     719.00
 10.17     753.00
 10.27     659.28
 10.37     727.00
 10.47     740.00
 10.57     709.00
 10.67     730.00
 10.77     689.00
 10.87     749.00
 10.97     694.00
 11.07     675.00
 11.17     672.23
 11.27     745.48
 11.37     744.00
 11.47     732.00
 11.57     725.00
 11.67     729.00
 11.77     755.46
 11.87     735.00
 11.97     730.77
 12.07     808.22
 12.17     851.00
 12.27     823.00
 12.37     876.00
 12.47     767.00
 12.57     748.00
 12.67     722.00
 12.77     680.00
 12.87     710.00
 12.97     677.00
 13.07     631.00
 13.17     662.00
 13.27     599.00
 13.37     684.00
 13.47     662.00
 13.57     643.00
 13.67     645.00
 13.77     647.00
 13.87     655.59
 13.97     642.00
 14.07     731.00
 14.17     634.36
 14.27     656.40
 14.37     643.00
 14.47     663.00
 14.57     626.00
 14.67     625.26
 14.77     641.00
 14.87     655.00
 14.97     706.85
 15.07     682.00
 15.17     644.00
 15.27     681.46
 15.37     645.56
 15.47     611.00
 15.57     621.00
 15.67     668.79
 15.77     642.00
 15.87     674.00
 15.97     601.42
 16.07     662.00
 16.17     628.04
 16.27     676.00
 16.37     674.00
 16.47     630.00
 16.57     683.66
 16.67     633.31
 16.77     668.00
 16.87     606.00
 16.97     640.22
 17.07     638.00
 17.17     591.76
 17.27     667.04
 17.37     608.00
 17.47     650.00
 17.57     672.03
 17.67     677.78
 17.77     617.00
 17.87     605.59
 17.97     644.31
 18.07     630.00
 18.17     675.00
 18.27     607.00
 18.37     672.00
 18.47     607.00
 18.57     585.00
 18.67     586.58
 18.77     656.11
 18.87     606.00
 18.97     638.00
 19.07     686.70
 19.17     656.00
 19.27     658.00
 19.37     641.00
 19.47     645.04
 19.57     613.00
 19.67     628.86
 19.77     586.90
 19.87     597.56
 19.97     610.00
 20.07     596.00
 20.17     615.83
 20.27     575.47
 20.37     662.00
 20.47     619.00
 20.57     600.00
 20.67     601.89
 20.77     575.00
 20.87     622.00
 20.97     644.31
 21.07     642.59
 21.17     608.00
 21.27     618.00
 21.37     573.75
 21.47     651.59
 21.57     600.22
 21.67     669.60
 21.77     592.95
 21.87     604.00
 21.97     639.00
 22.07     638.63
 22.17     629.61
 22.27     554.00
 22.37     618.00
 22.47     599.35
 22.57     575.58
 22.67     623.00
 22.77     618.00
 22.87     598.12
 22.97     570.55
 23.07     567.64
 23.17     624.00
 23.27     577.00
 23.37     619.56
 23.47     624.00
 23.57     626.00
 23.67     615.00
 23.77     627.00
 23.87     617.00
 23.97     600.18
 24.07     616.00
 24.17     649.00
 24.27     625.00
 24.37     577.32
 24.47     637.00
 24.57     651.00
 24.67     640.32
 24.77     711.00
 24.87     667.81
 24.97     669.00
 25.07     708.00
 25.17     642.51
 25.27     690.00
 25.37     652.13
 25.47     682.88
 25.57     650.00
 25.67     642.00
 25.77     588.58
 25.87     605.54
 25.97     670.00
 26.07     626.00
 26.17     589.52
 26.27     656.00
 26.37     685.71
 26.47     616.00
 26.57     644.00
 26.67     617.00
 26.77     659.00
 26.87     627.00
 26.97     685.00
 27.07     642.84
 27.17     698.19
 27.27     716.13
 27.37     660.19
 27.47     729.00
 27.57     716.00
 27.67     774.81
 27.77     881.05
 27.87    1046.15
 27.97    1271.78
 28.07    1952.00
 28.17    3311.51
 28.27    4799.84
 28.37    6312.00
 28.47    6972.85
 28.57    6123.00
 28.67    4822.00
 28.77    3287.00
 28.87    2995.00
 28.97    3301.00
 29.07    3843.03
 29.17    3977.00
 29.27    3457.00
 29.37    2593.00
 29.47    1865.00
 29.57    1331.00
 29.67    1051.66
 29.77     927.00
 29.87     814.00
 29.97     760.13
 30.07     734.00
 30.17     746.15
 30.27     632.45
 30.37     693.00
 30.47     616.46
 30.57     668.00
 30.67     665.00
 30.77     700.00
 30.87     739.45
 30.97     726.00
 31.07     738.00
 31.17     743.27
 31.27     710.32
 31.37     727.00
 31.47     672.89
 31.57     708.00
 31.67     671.79
 31.77     645.00
 31.87     639.83
 31.97     680.00
 32.07     631.00
 32.17     604.00
 32.27     620.00
 32.37     643.00
 32.47     652.00
 32.57     584.00
 32.67     637.00
 32.77     648.00
 32.87     671.00
 32.97     612.00
 33.07     626.49
 33.17     661.00
 33.27     595.00
 33.37     659.00
 33.47     629.00
 33.57     613.00
 33.67     642.00
 33.77     744.00
 33.87     720.00
 33.97     853.00
 34.07     991.78
 34.17    1141.38
 34.27    1196.00
 34.37    1251.54
 34.47    1166.10
 34.57     963.00
 34.67     839.40
 34.77     715.69
 34.87     679.83
 34.97     655.70
 35.07     672.91
 35.17     626.00
 35.27     627.35
 35.37     640.00
 35.47     555.25
 35.57     635.00
 35.67     609.00
 35.77     588.00
 35.87     619.00
 35.97     628.53
 36.07     596.00
 36.17     624.00
 36.27     623.00
 36.37     576.75
 36.47     577.32
 36.57     610.00
 36.67     568.45
 36.77     590.00
 36.87     545.70
 36.97     581.00
 37.07     550.03
 37.17     635.67
 37.27     586.00
 37.37     620.83
 37.47     561.11
 37.57     646.00
 37.67     583.06
 37.77     627.00
 37.87     641.82
 37.97     717.00
 38.07     634.41
 38.17     728.00
 38.27     682.00
 38.37     731.31
 38.47     739.75
 38.57     652.21
 38.67     658.00
 38.77     621.84
 38.87     609.00
 38.97     581.00
 39.07     599.00
 39.17     596.00
 39.27     568.00
 39.37     611.00
 39.47     626.53
 39.57     615.99
 39.67     517.00
 39.77     592.00
 39.87     569.00
 39.97     567.00
 40.07     533.94
 40.17     531.29
 40.27     544.43
 40.37     560.00
 40.47     606.84
 40.57     589.00
 40.67     622.00
 40.77     563.74
 40.87     554.00
 40.97     630.44
 41.07     551.50
 41.17     610.58
 41.27     580.00
 41.37     564.03
 41.47     575.00
 41.57     609.00
 41.67     577.00
 41.77     614.00
 41.87     607.64
 41.97     578.55
 42.07     606.00
 42.17     560.00
 42.27     541.00
 42.37     560.00
 42.47     635.00
 42.57     609.00
 42.67     638.66
 42.77     624.38
 42.87     620.00
 42.97     633.00
 43.07     749.93
 43.17     651.00
 43.27     663.00
 43.37     651.00
 43.47     592.50
 43.57     592.68
 43.67     607.00
 43.77     600.00
 43.87     621.00
 43.97     597.38
 44.07     566.00
 44.17     626.00
 44.27     591.00
 44.37     573.00
 44.47     553.94
 44.57     567.00
 44.67     616.00
 44.77     601.00
 44.87     612.22
 44.97     590.00
 45.07     594.56
 45.17     595.00
 45.27     602.18
 45.37     606.00
 45.47     556.93
 45.57     596.00
 45.67     605.00
 45.77     580.00
 45.87     623.61
 45.97     589.00
 46.07     563.00
 46.17     559.79
 46.27     535.00
 46.37     579.00
 46.47     556.00
 46.57     613.00
 46.67     613.93
 46.77     543.00
 46.87     603.10
 46.97     580.90
 47.07     587.00
 47.17     602.00
 47.27     631.24
 47.37     623.05
 47.47     590.00
 47.57     628.00
 47.67     621.00
 47.77     624.00
 47.87     638.06
 47.97     665.00
 48.07     619.00
 48.17     685.00
 48.27     693.00
 48.37     618.00
 48.47     680.00
 48.57     643.00
 48.67     620.00
 48.77     623.46
 48.87     612.00
 48.97     624.83
 49.07     636.00
 49.17     621.00
 49.27     621.00
 49.37     646.68
 49.47     609.00
 49.57     623.00
 49.67     656.00
 49.77     703.37
 49.87     777.00
 49.97    1077.87
 50.07    1311.26
 50.17    1662.00
 50.27    2074.81
 50.37    2570.00
 50.47    2852.00
 50.57    3090.04
 50.67    2856.83
 50.77    2441.00
 50.87    2018.00
 50.97    1640.00
 51.07    1249.84
 51.17    1005.00
 51.27     836.00
 51.37     794.00
 51.47     727.00
 51.57     750.00
 51.67     685.00
 51.77     711.68
 51.87     712.00
 51.97     697.00
 52.07     677.00
 52.17     713.00
 52.27     671.00
 52.37     693.67
 52.47     672.67
 52.57     627.00
 52.67     605.37
 52.77     664.00
 52.87     651.04
 52.97     726.00
 53.07     698.63
 53.17     759.00
 53.27     732.00
 53.37     843.00
 53.47     867.41
 53.57    1014.35
 53.67    1122.00
 53.77    1201.00
 53.87    1250.00
 53.97    1283.00
 54.07    1192.00
 54.17    1109.00
 54.27    1032.00
 54.37     934.65
 54.47     837.00
 54.57     728.00
 54.67     714.00
 54.77     689.00
 54.87     657.00
 54.97     678.00
 55.07     650.00
 55.17     619.56
 55.27     647.00
 55.37     658.00
 55.47     613.86
 55.57     613.65
 55.67     638.00
 55.77     677.00
 55.87     670.47
 55.97     706.00
 56.07     717.00
 56.17     676.00
 56.27     754.07
 56.37     783.16
 56.47     844.00
 56.57     999.14
 56.67    1058.00
 56.77    1376.00
 56.87    1577.21
 56.97    1944.00
 57.07    2353.00
 57.17    2580.00
 57.27    2722.37
 57.37    2711.00
 57.47    2577.00
 57.57    2245.00
 57.67    1921.00
 57.77    1476.00
 57.87    1305.31
 57.97    1088.00
 58.07     962.00
 58.17     824.00
 58.27     736.00
 58.37     731.00
 58.47     755.05
 58.57     826.00
 58.67     885.14
 58.77     906.00
 58.87     936.18
 58.97    1024.00
 59.07    1126.45
 59.17    1196.00
 59.27    1244.00
 59.37    1310.53
 59.47    1360.00
 59.57    1363.00
 59.67    1257.00
 59.77    1234.00
 59.87    1266.00
 59.97    1194.00
 60.07    1264.00
 60.17    1228.11
 60.27    1379.00
 60.37    1433.00
 60.47    1542.00
 60.57    1583.00
 60.67    1557.28
 60.77    1543.31
 60.87    1487.00
 60.97    1370.00
 61.07    1267.46
 61.17    1041.00
 61.27     930.00
 61.37     895.00
 61.47     757.22
 61.57     831.00
 61.67     724.38
 61.77     799.02
 61.87     835.00
 61.97     889.00
 62.07    1022.00
 62.17    1230.23
 62.27    1317.00
 62.37    1434.41
 62.47    1568.00
 62.57    1643.00
 62.67    1735.44
 62.77    1613.21
 62.87    1502.99
 62.97    1404.00
 63.07    1107.00
 63.17    1110.19
 63.27     909.00
 63.37     856.88
 63.47     773.00
 63.57     695.00
 63.67     676.92
 63.77     682.00
 63.87     695.82
 63.97     732.00
 64.07     654.70
 64.17     750.00
 64.27     736.88
 64.37     809.64
 64.47     809.00
 64.57     960.00
 64.67     996.00
 64.77    1141.10
 64.87    1273.00
 64.97    1356.06
 65.07    1506.00
 65.17    1526.00
 65.27    1461.00
 65.37    1384.93
 65.47    1331.13
 65.57    1283.58
 65.67    1056.02
 65.77    1012.37
 65.87     932.00
 65.97     844.00
 66.07     839.72
 66.17     787.00
 66.27     731.00
 66.37     651.00
 66.47     688.00
 66.57     652.00
 66.67     737.96
 66.77     683.00
 66.87     725.95
 66.97     669.42
 67.07     690.00
 67.17     651.00
 67.27     702.00
 67.37     786.53
 67.47     711.70
 67.57     798.00
 67.67     885.00
 67.77     975.00
 67.87    1061.00
 67.97    1278.75
 68.07    1426.00
 68.17    1669.00
 68.27    1902.87
 68.37    2203.00
 68.47    2317.19
 68.57    2459.00
 68.67    2540.00
 68.77    2405.00
 68.87    2273.00
 68.97    1938.58
 69.07    1839.00
 69.17    1540.00
 69.27    1368.69
 69.37    1110.00
 69.47     980.26
 69.57     903.00
 69.67     817.75
 69.77     795.00
 69.87     750.06
 69.97     776.00
 70.07     658.54
 70.17     690.47
 70.27     697.90
 70.37     667.47
 70.47     721.54
 70.57     713.00
 70.67     690.00
 70.77     703.68
 70.87     710.00
 70.97     658.00
 71.07     685.00
 71.17     691.66
 71.27     650.00
 71.37     701.06
 71.47     787.00
 71.57     846.74
 71.67     867.00
 71.77     973.78
 71.87    1039.00
 71.97    1216.00
 72.07    1368.00
 72.17    1500.00
 72.27    1733.39
 72.37    1753.00
 72.47    1975.11
 72.57    1940.00
 72.67    1983.50
 72.77    1897.41
 72.87    1769.00
 72.97    1592.00
 73.07    1413.85
 73.17    1349.01
 73.27    1158.82
 73.37     973.00
 73.47     907.00
 73.57     824.00
 73.67     775.15
 73.77     745.00
 73.87     712.81
 73.97     653.00
 74.07     637.29
 74.17     663.71
 74.27     711.94
 74.37     628.00
 74.47     635.00
 74.57     643.00
 74.67     671.00
 74.77     672.00
 74.87     662.65
 74.97     668.00
 75.07     680.00
 75.17     667.00
 75.27     671.00
 75.37     669.83
 75.47     697.00
 75.57     700.00
 75.67     643.00
 75.77     702.36
 75.87     686.00
 75.97     643.12
 76.07     663.00
 76.17     684.54
 76.27     645.44
 76.37     726.00
 76.47     749.00
 76.57     768.18
 76.67     857.81
 76.77     858.69
 76.87     915.43
 76.97     933.00
 77.07     967.00
 77.17     954.00
 77.27     992.00
 77.37     983.73
 77.47     875.00
 77.57     918.00
 77.67     853.30
 77.77     735.13
 77.87     754.97
 77.97     702.00
 78.07     648.00
 78.17     695.00
 78.27     626.00
 78.37     613.00
 78.47     613.54
 78.57     632.00
 78.67     578.91
 78.77     643.00
 78.87     573.66
 78.97     588.00
 79.07     646.80
 79.17     557.15
 79.27     666.00
 79.37     586.83
 79.47     606.24
 79.57     572.00
 79.67     642.00
 79.77     568.30
 79.87     569.04
 79.97     587.71
 80.07     659.00
 80.17     568.00
 80.27     608.00
 80.37     646.00
 80.47     615.62
 80.57     726.23
 80.67     708.00
 80.77     699.76
 80.87     770.44
 80.97     856.00
 81.07     944.00
 81.17    1008.00
 81.27    1045.06
 81.37    1173.33
 81.47    1217.00
 81.57    1311.00
 81.67    1390.00
 81.77    1397.00
 81.87    1304.00
 81.97    1306.00
 82.07    1245.00
 82.17    1161.00
 82.27    1181.00
 82.37    1038.00
 82.47     953.00
 82.57     921.00
 82.67     867.00
 82.77     885.40
 82.87     787.34
 82.97     710.00
 83.07     746.87
 83.17     698.00
 83.27     705.83
 83.37     654.00
 83.47     651.00
 83.57     626.00
 83.67     618.00
 83.77     593.00
 83.87     575.00
 83.97     626.86
 84.07     640.00
 84.17     687.92
 84.27     653.00
 84.37     704.41
 84.47     678.07
 84.57     621.00
 84.67     638.00
 84.77     630.00
 84.87     665.00
 84.97     611.00
 85.07     644.00
 85.17     617.00
 85.27     629.96
 85.37     627.00
 85.47     585.53
 85.57     562.00
 85.67     571.00
 85.77     593.92
 85.87     614.00
 85.97     578.00
 86.07     579.66
 86.17     649.00
 86.27     612.45
 86.37     609.12
 86.47     583.00
 86.57     651.00
 86.67     616.87
 86.77     677.00
 86.87     597.98
 86.97     630.00
 87.07     643.00
 87.17     630.73
 87.27     716.00
 87.37     673.00
 87.47     700.00
 87.57     682.00
 87.67     655.82
 87.77     673.60
 87.87     739.00
 87.97     685.00
 88.07     749.46
 88.17     741.00
 88.27     664.04
 88.37     690.76
 88.47     687.00
 88.57     671.00
 88.67     702.00
 88.77     700.58
 88.87     709.00
 88.97     632.00
 89.07     657.00
 89.17     660.00
 89.27     611.00
 89.37     629.62
 89.47     667.00
 89.57     678.00
 89.67     705.86
 89.77     609.74
 89.87     648.00
 89.97     676.00
 90.07     704.00
 90.17     693.11
 90.27     671.32
 90.37     643.00
 90.47     705.73
 90.57     691.00
 90.67     673.00
 90.77     675.00
 90.87     640.00
 90.97     596.07
 91.07     603.00
 91.17     628.00
 91.27     593.40
 91.37     574.40
 91.47     590.00
 91.57     545.00
 91.67     631.00
 91.77     609.00
 91.87     556.00
 91.97     619.00
 92.07     612.66
 92.17     576.00
 92.27     590.67
 92.37     631.29
 92.47     576.91
 92.57     591.00
 92.67     622.00
 92.77     622.00
 92.87     631.00
 92.97     603.63
 93.07     661.00
 93.17     623.91
 93.27     707.00
 93.37     694.00
 93.47     664.00
 93.57     746.00
 93.67     768.00
 93.77     779.00
 93.87     802.00
 93.97     829.10
 94.07     761.00
 94.17     848.68
 94.27     854.00
 94.37     930.43
 94.47     923.00
 94.57     943.02
 94.67     937.47
 94.77     993.74
 94.87     918.00
 94.97     953.39
 95.07     925.22
 95.17    1037.88
 95.27     977.00
 95.37     967.00
 95.47     988.85
 95.57     998.00
 95.67    1034.00
 95.77    1055.00
 95.87    1002.00
 95.97    1002.00
 96.07     919.39
 96.17     854.00
 96.27     852.36
 96.37     845.00
 96.47     904.00
 96.57     826.00
 96.67     839.85
 96.77     817.00
 96.87     841.72
 96.97     861.00
 97.07     854.00
 97.17     918.00
 97.27     855.90
 97.37     993.00
 97.47    1018.49
 97.57    1081.65
 97.67    1207.22
 97.77    1285.55
 97.87    1304.00
 97.97    1324.05
 98.07    1500.00
 98.17    1483.01
 98.27    1614.00
 98.37    1621.10
 98.47    1611.00
 98.57    1519.41
 98.67    1501.00
 98.77    1458.00
 98.87    1461.00
 98.97    1364.39
 99.07    1323.75
 99.17    1293.00
 99.27    1179.05
 99.37    1068.00
 99.47    1089.00
 99.57     998.00
 99.67     994.00
 99.77     966.44
 99.87    1021.86
 99.97    1034.00
100.07    1036.00
100.17    1033.00
100.27    1154.54
100.37    1218.00
100.47    1284.00
100.57    1391.93
100.67    1475.00
100.77    1529.00
100.87    1582.78
100.97    1750.31
101.07    1850.00
101.17    1834.00
101.27    2022.00
101.37    1928.16
101.47    1963.98
101.57    2132.24
101.67    2047.00
101.77    2082.00
101.87    2062.00
101.97    2135.00
102.07    2053.00
102.17    1939.00
102.27    1933.89
102.37    1821.00
102.47    1735.68
102.57    1624.00
102.67    1551.00
102.77    1549.00
102.87    1522.92
102.97    1417.00
103.07    1383.81
103.17    1311.18
103.27    1275.00
103.37    1261.00
103.47    1226.00
103.57    1207.00
103.67    1154.81
103.77    1219.52
103.87    1214.11
103.97    1064.22
104.07    1118.00
104.17     947.00
104.27     975.00
104.37     989.98
104.47     892.00
104.57     795.56
104.67     795.29
104.77     796.00
104.87     768.00
104.97     756.77
105.07     734.00
105.17     728.00
105.27     693.00
105.37     647.35
105.47     669.00
105.57     627.00
105.67     638.41
105.77     669.00
105.87     623.00
105.97     641.90
106.07     601.00
106.17     670.00
106.27     583.92
106.37     610.00
106.47     611.00
106.57     639.30
106.67     631.00
106.77     634.38
106.87     651.65
106.97     655.00
107.07     660.00
107.17     649.00
107.27     684.00
107.37     701.62
107.47     712.00
107.57     763.00
107.67     784.00
107.77     713.00
107.87     744.00
107.97     707.00
108.07     770.00
108.17     831.41
108.27     722.40
108.37     763.00
108.47     746.00
108.57     737.00
108.67     756.02
108.77     819.49
108.87     745.13
108.97     800.00
109.07     757.00
109.17     725.00
109.27     731.00
109.37     721.00
109.47     722.00
109.57     773.00
109.67     791.00
109.77     758.58
109.87     713.00
109.97     778.20
110.07     759.81
110.17     755.00
110.27     749.00
110.37     699.13
110.47     789.00
110.57     796.00
110.67     722.00
110.77     709.26
110.87     646.00
110.97     720.00
111.07     683.00
111.17     686.00
111.27     655.00
111.37     651.00
111.47     592.82
111.57     607.79
111.67     637.00
111.77     631.00
111.87     590.00
111.97     564.45
112.07     659.00
112.17     603.00
112.27     576.00
112.37     611.00
112.47     614.00
112.57     558.78
112.67     629.00
112.77     564.00
112.87     588.00
112.97     613.00
113.07     588.55
113.17     580.00
113.27     577.95
113.37     552.00
113.47     627.00
113.57     586.00
113.67     590.64
113.77     645.00
113.87     629.00
113.97     624.00
114.07     636.66
114.17     688.99
114.27     644.00
114.37     644.00
114.47     712.11
114.57     716.00
114.67     691.00
114.77     718.04
114.87     816.84
114.97     809.00
115.07     857.00
115.17     863.00
115.27     969.00
115.37    1034.00
115.47    1176.00
115.57    1228.41
115.67    1467.90
115.77    1626.36
115.87    1782.87
115.97    1920.00
116.07    2223.00
116.17    2496.00
116.27    2876.00
116.37    3088.00
116.47    3439.00
116.57    3704.00
116.67    4225.00
116.77    4553.65
116.87    4939.00
116.97    5429.06
117.07    5647.79
117.17    6198.40
117.27    6417.00
117.37    6703.10
117.47    7137.00
117.57    7277.00
117.67    7611.00
117.77    7453.00
117.87    7377.37
117.97    7358.00
118.07    7399.00
118.17    7088.00
118.27    6849.00
118.37    6443.84
118.47    6133.00
118.57    5945.16
118.67    5643.20
118.77    5065.20
118.87    4822.40
118.97    4410.00
119.07    4209.00
119.17    3725.00
119.27    3331.87
119.37    3084.64
119.47    2778.00
119.57    2433.00
119.67    2257.72
119.77    1966.42
119.87    1880.00
119.97    1634.00
120.07    1576.00
120.17    1416.00
120.27    1300.00
120.37    1219.00
120.47    1152.00
120.57    1039.00
120.67     981.00
120.77     915.00
120.87     824.35
120.97     874.00
121.07     834.00
121.17     797.20
121.27     786.94
121.37     781.80
121.47     771.32
121.57     717.65
121.67     727.41
121.77     653.52
121.87     672.00
121.97     667.92
122.07     715.37
122.17     682.53
122.27     683.65
122.37     680.00
122.47     653.77
122.57     687.00
122.67     627.00
122.77     676.00
122.87     641.00
122.97     737.97
123.07     696.00
123.17     729.00
123.27     699.00
123.37     725.00
123.47     729.81
123.57     706.00
123.67     730.00
123.77     740.60
123.87     750.00
123.97     759.00
124.07     709.00
124.17     773.00
124.27     806.00
124.37     794.00
124.47     810.33
124.57     850.00
124.67     748.00
124.77     832.00
124.87     756.24
124.97     793.00
