  9.97     633.00
 10.07     592.35
 10.17     586.00
 10.27     669.00
 10.37     611.00
 10.47     576.90
 10.57     573.31
 10.67     589.35
 10.77     617.00
 10.87     602.00
 10.97     530.71
 11.07     547.57
 11.17     605.00
 11.27     632.83
 11.37     585.52
 11.47     620.00
 11.57     616.17
 11.67     649.00
 11.77     613.00
 11.87     675.00
 11.97     631.00
 12.07     718.00
 12.17     714.00
 12.27     717.00
 12.37     670.89
 12.47     660.00
 12.57     615.00
 12.67     587.28
 12.77     558.00
 12.87     615.00
 12.97     557.00
 13.07     593.00
 13.17     585.00
 13.27     540.70
 13.37     599.00
 13.47     538.00
 13.57     599.00
 13.67     572.00
 13.77     601.00
 13.87     590.86
 13.97     614.00
 14.07     572.00
 14.17     585.00
 14.27     567.80
 14.37     550.00
 14.47     551.00
 14.57     555.00
 14.67     574.00
 14.77     561.00
 14.87     593.00
 14.97     635.30
 15.07     557.00
 15.17     568.00
 15.27     566.00
 15.37     582.00
 15.47     573.04
 15.57     567.00
 15.67     559.00
 15.77     567.00
 15.87     569.47
 15.97     574.00
 16.07     534.00
 16.17     546.00
 16.27     604.17
 16.37     579.78
 16.47     593.00
 16.57     620.00
 16.67     538.00
 16.77     569.93
 16.87     589.83
 16.97     553.31
 17.07     638.00
 17.17     585.66
 17.27     589.00
 17.37     542.00
 17.47     578.09
 17.57     562.00
 17.67     579.66
 17.77     616.72
 17.87     617.06
 17.97     629.97
 18.07     543.00
 18.17     564.00
 18.27     640.19
 18.37     557.00
 18.47     581.00
 18.57     547.87
 18.67     593.00
 18.77     568.00
 18.87     587.00
 18.97     618.00
 19.07     550.94
 19.17     532.00
 19.27     538.89
 19.37     545.00
 19.47     549.00
 19.57     575.00
 19.67     566.00
 19.77     590.00
 19.87     637.86
 19.97     568.26
 20.07     562.00
 20.17     563.00
 20.27     610.45
 20.37     586.68
 20.47     576.00
 20.57     636.07
 20.67     596.00
 20.77     561.00
 20.87     598.00
 20.97     541.00
 21.07     606.00
 21.17     580.00
 21.27     614.93
 21.37     529.72
 21.47     542.00
 21.57     568.00
 21.67     606.00
 21.77     580.64
 21.87     562.00
 21.97     578.00
 22.07     571.00
 22.17     606.00
 22.27     600.00
 22.37     560.00
 22.47     564.00
 22.57     567.00
 22.67     580.00
 22.77     577.00
 22.87     552.63
 22.97     583.00
 23.07     632.88
 23.17     562.00
 23.27     579.74
 23.37     585.59
 23.47     585.00
 23.57     558.00
 23.67     545.32
 23.77     577.46
 23.87     601.00
 23.97     582.00
 24.07     538.67
 24.17     600.00
 24.27     561.00
 24.37     615.77
 24.47     604.00
 24.57     637.00
 24.67     663.00
 24.77     661.00
 24.87     694.00
 24.97     605.87
 25.07     666.00
 25.17     626.00
 25.27     612.00
 25.37     630.49
 25.47     577.00
 25.57     608.00
 25.67     561.74
 25.77     576.97
 25.87     625.19
 25.97     618.00
 26.07     569.41
 26.17     639.00
 26.27     604.00
 26.37     607.00
 26.47     609.00
 26.57     517.00
 26.67     605.00
 26.77     605.81
 26.87     622.52
 26.97     643.00
 27.07     594.00
 27.17     630.00
 27.27     630.00
 27.37     557.49
 27.47     601.00
 27.57     601.00
 27.67     623.00
 27.77     648.00
 27.87     590.67
 27.97     701.04
 28.07     764.00
 28.17     878.00
 28.27     914.00
 28.37     943.00
 28.47     956.00
 28.57     871.00
 28.67     758.00
 28.77     788.00
 28.87     745.70
 28.97     839.00
 29.07     895.73
 29.17     856.00
 29.27     755.00
 29.37     738.00
 29.47     689.00
 29.57     590.60
 29.67     596.00
 29.77     552.12
 29.87     616.00
 29.97     656.00
 30.07     642.00
 30.17     635.00
 30.27     642.00
 30.37     614.07
 30.47     605.00
 30.57     598.00
 30.67     641.00
 30.77     659.00
 30.87     549.86
 30.97     683.00
 31.07     644.62
 31.17     653.00
 31.27     580.00
 31.37     534.98
 31.47     592.00
 31.57     618.00
 31.67     572.00
 31.77     616.00
 31.87     517.70
 31.97     513.64
 32.07     595.00
 32.17     569.00
 32.27     557.00
 32.37     607.00
 32.47     533.00
 32.57     566.00
 32.67     537.58
 32.77     539.38
 32.87     573.00
 32.97     576.00
 33.07     618.00
 33.17     641.00
 33.27     572.63
 33.37     573.00
 33.47     589.00
 33.57     587.00
 33.67     651.04
 33.77     698.00
 33.87     741.00
 33.97     937.22
 34.07    1025.00
 34.17    1040.45
 34.27     956.00
 34.37     883.22
 34.47     769.00
 34.57     732.00
 34.67     617.82
 34.77     594.00
 34.87     602.00
 34.97     581.00
 35.07     533.80
 35.17     551.00
 35.27     511.00
 35.37     535.00
 35.47     564.25
 35.57     539.29
 35.67     573.98
 35.77     506.00
 35.87     524.90
 35.97     486.00
 36.07     480.00
 36.17     495.83
 36.27     575.90
 36.37     493.00
 36.47     510.00
 36.57     493.84
 36.67     530.67
 36.77     491.00
 36.87     506.00
 36.97     502.61
 37.07     569.00
 37.17     532.00
 37.27     520.00
 37.37     546.35
 37.47     527.62
 37.57     523.00
 37.67     504.00
 37.77     577.17
 37.87     551.00
 37.97     558.34
 38.07     587.38
 38.17     512.00
 38.27     512.00
 38.37     498.00
 38.47     477.00
 38.57     516.92
 38.67     504.51
 38.77     508.00
 38.87     529.00
 38.97     516.00
 39.07     482.73
 39.17     481.92
 39.27     499.00
 39.37     556.13
 39.47     544.00
 39.57     510.00
 39.67     507.00
 39.77     557.64
 39.87     475.68
 39.97     531.74
 40.07     563.96
 40.17     538.00
 40.27     551.66
 40.37     482.00
 40.47     471.00
 40.57     485.00
 40.67     465.00
 40.77     514.00
 40.87     516.00
 40.97     493.00
 41.07     487.00
 41.17     505.00
 41.27     487.00
 41.37     492.26
 41.47     554.31
 41.57     535.90
 41.67     487.58
 41.77     491.00
 41.87     479.00
 41.97     517.48
 42.07     506.00
 42.17     535.16
 42.27     519.00
 42.37     550.85
 42.47     502.00
 42.57     529.00
 42.67     624.63
 42.77     630.51
 42.87     640.01
 42.97     588.00
 43.07     591.00
 43.17     560.00
 43.27     518.00
 43.37     527.30
 43.47     549.00
 43.57     510.00
 43.67     566.75
 43.77     507.00
 43.87     506.28
 43.97     507.00
 44.07     530.00
 44.17     497.48
 44.27     511.00
 44.37     556.46
 44.47     495.59
 44.57     506.00
 44.67     520.00
 44.77     521.00
 44.87     534.54
 44.97     512.00
 45.07     510.00
 45.17     536.00
 45.27     456.75
 45.37     523.86
 45.47     466.00
 45.57     513.00
 45.67     515.07
 45.77     531.63
 45.87     475.00
 45.97     496.72
 46.07     531.00
 46.17     497.48
 46.27     524.63
 46.37     497.41
 46.47     487.02
 46.57     525.00
 46.67     514.00
 46.77     558.83
 46.87     549.13
 46.97     486.68
 47.07     491.00
 47.17     509.00
 47.27     530.96
 47.37     531.02
 47.47     496.00
 47.57     584.00
 47.67     496.74
 47.77     567.00
 47.87     616.00
 47.97     627.81
 48.07     604.00
 48.17     584.00
 48.27     529.00
 48.37     590.00
 48.47     592.00
 48.57     602.26
 48.67     534.00
 48.77     542.00
 48.87     556.00
 48.97     562.00
 49.07     541.00
 49.17     566.00
 49.27     520.57
 49.37     585.00
 49.47     628.00
 49.57     596.00
 49.67     743.29
 49.77     822.88
 49.87    1070.39
 49.97    1326.90
 50.07    1559.81
 50.17    1943.44
 50.27    2265.00
 50.37    2387.00
 50.47    2234.21
 50.57    1974.00
 50.67    1674.00
 50.77    1209.00
 50.87    1144.05
 50.97     812.00
 51.07     730.00
 51.17     671.00
 51.27     630.00
 51.37     668.86
 51.47     580.40
 51.57     626.00
 51.67     583.00
 51.77     598.00
 51.87     564.00
 51.97     591.00
 52.07     578.00
 52.17     554.00
 52.27     586.62
 52.37     585.00
 52.47     503.80
 52.57     585.00
 52.67     576.00
 52.77     603.00
 52.87     610.00
 52.97     645.07
 53.07     714.00
 53.17     728.00
 53.27     830.50
 53.37     853.38
 53.47    1042.00
 53.57    1143.42
 53.67    1156.00
 53.77    1218.00
 53.87    1133.76
 53.97    1038.00
 54.07     904.00
 54.17     780.00
 54.27     812.23
 54.37     645.00
 54.47     657.00
 54.57     624.00
 54.67     598.00
 54.77     570.02
 54.87     597.66
 54.97     593.00
 55.07     585.58
 55.17     594.00
 55.27     608.00
 55.37     567.00
 55.47     598.00
 55.57     562.00
 55.67     622.00
 55.77     573.00
 55.87     618.00
 55.97     635.00
 56.07     666.00
 56.17     737.35
 56.27     779.29
 56.37     886.37
 56.47    1150.16
 56.57    1227.00
 56.67    1563.53
 56.77    1867.32
 56.87    2104.00
 56.97    2344.00
 57.07    2479.14
 57.17    2496.00
 57.27    2238.99
 57.37    1889.02
 57.47    1693.00
 57.57    1335.00
 57.67    1103.00
 57.77    1025.00
 57.87     832.00
 57.97     737.36
 58.07     722.00
 58.17     728.00
 58.27     752.00
 58.37     664.40
 58.47     810.41
 58.57     851.00
 58.67     926.75
 58.77    1017.00
 58.87    1077.00
 58.97    1104.00
 59.07    1235.00
 59.17    1259.52
 59.27    1171.10
 59.37    1304.00
 59.47    1216.83
 59.57    1092.03
 59.67    1197.00
 59.77    1114.23
 59.87    1157.24
 59.97    1252.00
 60.07    1316.00
 60.17    1394.00
 60.27    1461.00
 60.37    1519.65
 60.47    1528.30
 60.57    1521.00
 60.67    1389.11
 60.77    1240.00
 60.87    1189.00
 60.97    1016.00
 61.07     880.04
 61.17     778.00
 61.27     722.83
 61.37     666.00
 61.47     733.32
 61.57     712.13
 61.67     726.00
 61.77     862.63
 61.87     884.00
 61.97     985.98
 62.07    1150.91
 62.17    1247.85
 62.27    1261.00
 62.37    1452.54
 62.47    1371.46
 62.57    1290.00
 62.67    1175.79
 62.77    1006.45
 62.87     947.00
 62.97     790.02
 63.07     736.15
 63.17     689.00
 63.27     635.68
 63.37     670.26
 63.47     607.00
 63.57     626.60
 63.67     596.00
 63.77     548.90
 63.87     612.00
 63.97     660.00
 64.07     679.71
 64.17     713.00
 64.27     695.00
 64.37     787.00
 64.47     805.84
 64.57     945.06
 64.67     907.39
 64.77     983.68
 64.87     997.00
 64.97    1053.00
 65.07     995.00
 65.17     907.00
 65.27     861.00
 65.37     821.00
 65.47     775.00
 65.57     724.21
 65.67     671.50
 65.77     724.13
 65.87     592.00
 65.97     595.00
 66.07     625.00
 66.17     559.00
 66.27     592.00
 66.37     541.00
 66.47     559.96
 66.57     541.00
 66.67     600.00
 66.77     549.51
 66.87     614.00
 66.97     571.61
 67.07     636.00
 67.17     685.10
 67.27     694.00
 67.37     709.00
 67.47     822.00
 67.57     886.00
 67.67    1062.00
 67.77    1269.00
 67.87    1458.00
 67.97    1829.46
 68.07    1963.00
 68.17    2203.00
 68.27    2327.00
 68.37    2327.00
 68.47    2301.00
 68.57    2205.00
 68.67    2021.00
 68.77    1714.00
 68.87    1483.00
 68.97    1203.12
 69.07    1078.00
 69.17     929.00
 69.27     841.97
 69.37     766.77
 69.47     706.00
 69.57     654.00
 69.67     607.00
 69.77     600.00
 69.87     616.00
 69.97     637.00
 70.07     544.19
 70.17     533.00
 70.27     602.00
 70.37     532.19
 70.47     587.00
 70.57     592.00
 70.67     614.56
 70.77     588.00
 70.87     578.00
 70.97     613.00
 71.07     584.68
 71.17     650.00
 71.27     708.00
 71.37     738.00
 71.47     860.00
 71.57     886.51
 71.67    1060.00
 71.77    1251.00
 71.87    1276.00
 71.97    1494.00
 72.07    1581.46
 72.17    1684.32
 72.27    1852.49
 72.37    1820.64
 72.47    1773.00
 72.57    1586.12
 72.67    1615.00
 72.77    1356.00
 72.87    1097.96
 72.97    1029.53
 73.07     997.00
 73.17     828.62
 73.27     805.00
 73.37     737.00
 73.47     611.08
 73.57     663.00
 73.67     663.00
 73.77     629.38
 73.87     557.36
 73.97     519.23
 74.07     508.28
 74.17     601.00
 74.27     558.37
 74.37     594.00
 74.47     609.67
 74.57     604.00
 74.67     564.22
 74.77     619.00
 74.87     554.63
 74.97     633.00
 75.07     594.00
 75.17     505.30
 75.27     580.90
 75.37     505.55
 75.47     609.00
 75.57     590.00
 75.67     577.87
 75.77     552.00
 75.87     603.99
 75.97     579.58
 76.07     637.00
 76.17     640.00
 76.27     589.00
 76.37     627.00
 76.47     602.38
 76.57     713.00
 76.67     774.00
 76.77     735.00
 76.87     742.93
 76.97     717.00
 77.07     678.00
 77.17     680.00
 77.27     632.00
 77.37     588.00
 77.47     571.08
 77.57     555.00
 77.67     603.00
 77.77     577.00
 77.87     503.01
 77.97     588.00
 78.07     561.00
 78.17     542.00
 78.27     509.00
 78.37     481.00
 78.47     504.00
 78.57     532.00
 78.67     475.82
 78.77     521.89
 78.87     466.00
 78.97     501.00
 79.07     550.00
 79.17     522.00
 79.27     476.34
 79.37     537.00
 79.47     544.00
 79.57     557.00
 79.67     479.71
 79.77     521.00
 79.87     536.00
 79.97     532.09
 80.07     523.16
 80.17     545.88
 80.27     552.75
 80.37     531.00
 80.47     587.01
 80.57     571.00
 80.67     615.50
 80.77     533.00
 80.87     606.00
 80.97     608.00
 81.07     659.70
 81.17     633.00
 81.27     679.00
 81.37     666.39
 81.47     695.00
 81.57     758.00
 81.67     750.00
 81.77     732.06
 81.87     737.63
 81.97     741.00
 82.07     707.00
 82.17     703.00
 82.27     750.34
 82.37     627.00
 82.47     618.90
 82.57     639.00
 82.67     622.18
 82.77     597.93
 82.87     579.00
 82.97     574.00
 83.07     574.00
 83.17     576.44
 83.27     574.00
 83.37     557.68
 83.47     581.00
 83.57     544.00
 83.67     548.65
 83.77     547.00
 83.87     529.00
 83.97     563.00
 84.07     577.99
 84.17     539.00
 84.27     604.67
 84.37     563.00
 84.47     543.00
 84.57     538.00
 84.67     557.00
 84.77     517.90
 84.87     537.00
 84.97     579.84
 85.07     524.00
 85.17     493.32
 85.27     561.00
 85.37     497.00
 85.47     524.00
 85.57     517.27
 85.67     533.29
 85.77     531.01
 85.87     517.00
 85.97     486.00
 86.07     530.00
 86.17     543.00
 86.27     544.50
 86.37     485.14
 86.47     499.07
 86.57     560.42
 86.67     539.67
 86.77     528.00
 86.87     513.25
 86.97     536.00
 87.07     571.00
 87.17     529.00
 87.27     557.93
 87.37     594.00
 87.47     600.00
 87.57     594.97
 87.67     609.00
 87.77     646.00
 87.87     665.78
 87.97     582.72
 88.07     663.00
 88.17     597.80
 88.27     625.00
 88.37     617.00
 88.47     607.00
 88.57     609.00
 88.67     605.71
 88.77     578.35
 88.87     568.00
 88.97     602.54
 89.07     568.00
 89.17     571.00
 89.27     578.00
 89.37     572.22
 89.47     633.21
 89.57     631.00
 89.67     587.00
 89.77     538.00
 89.87     604.00
 89.97     590.00
 90.07     598.00
 90.17     596.68
 90.27     539.00
 90.37     559.00
 90.47     541.00
 90.57     533.00
 90.67     540.00
 90.77     548.52
 90.87     505.97
 90.97     518.00
 91.07     546.00
 91.17     504.00
 91.27     522.05
 91.37     524.93
 91.47     542.00
 91.57     505.00
 91.67     501.13
 91.77     572.97
 91.87     513.00
 91.97     527.00
 92.07     546.00
 92.17     548.00
 92.27     526.00
 92.37     586.89
 92.47     524.00
 92.57     556.00
 92.67     554.54
 92.77     589.00
 92.87     626.84
 92.97     648.00
 93.07     671.00
 93.17     646.00
 93.27     648.29
 93.37     732.00
 93.47     679.02
 93.57     752.97
 93.67     781.89
 93.77     768.00
 93.87     812.00
 93.97     810.00
 94.07     825.07
 94.17     815.00
 94.27     819.00
 94.37     807.00
 94.47     825.00
 94.57     910.00
 94.67     808.76
 94.77     886.98
 94.87     870.96
 94.97     926.00
 95.07     908.34
 95.17     886.26
 95.27     942.00
 95.37     889.00
 95.47     833.03
 95.57     811.33
 95.67     804.00
 95.77     773.65
 95.87     747.34
 95.97     767.00
 96.07     766.00
 96.17     664.20
 96.27     724.00
 96.37     747.38
 96.47     747.00
 96.57     750.91
 96.67     716.00
 96.77     761.00
 96.87     883.12
 96.97     924.00
 97.07     984.00
 97.17    1048.00
 97.27    1077.00
 97.37    1131.00
 97.47    1240.00
 97.57    1385.00
 97.67    1375.98
 97.77    1364.00
 97.87    1348.91
 97.97    1456.00
 98.07    1441.00
 98.17    1463.00
 98.27    1354.46
 98.37    1295.00
 98.47    1209.47
 98.57    1162.73
 98.67    1193.00
 98.77    1083.00
 98.87     974.90
 98.97     984.46
 99.07     914.75
 99.17     871.00
 99.27     888.00
 99.37     947.00
 99.47     903.63
 99.57     922.00
 99.67    1009.00
 99.77     966.00
 99.87    1047.00
 99.97    1105.00
100.07    1214.00
100.17    1231.97
100.27    1429.00
100.37    1498.00
100.47    1586.00
100.57    1625.00
100.67    1787.37
100.77    1751.00
100.87    1880.00
100.97    1918.38
101.07    1951.00
101.17    1900.00
101.27    2056.41
101.37    1938.00
101.47    1933.00
101.57    1981.00
101.67    1861.52
101.77    1800.53
101.87    1613.31
101.97    1566.00
102.07    1546.00
102.17    1418.82
102.27    1396.00
102.37    1332.14
102.47    1343.00
102.57    1199.00
102.67    1177.00
102.77    1236.48
102.87    1134.00
102.97    1145.75
103.07    1147.00
103.17    1109.65
103.27    1019.00
103.37    1019.43
103.47     996.00
103.57     965.31
103.67     939.00
103.77     857.00
103.87     849.00
103.97     783.06
104.07     801.00
104.17     748.00
104.27     693.00
104.37     655.27
104.47     697.09
104.57     601.00
104.67     607.00
104.77     611.00
104.87     642.00
104.97     584.00
105.07     599.00
105.17     585.00
105.27     529.21
105.37     544.00
105.47     520.00
105.57     531.00
105.67     520.00
105.77     561.00
105.87     550.00
105.97     550.00
106.07     599.38
106.17     607.00
106.27     517.00
106.37     599.19
106.47     575.52
106.57     627.12
106.67     636.34
106.77     543.00
106.87     609.00
106.97     642.00
107.07     621.00
107.17     656.00
107.27     643.00
107.37     687.00
107.47     676.57
107.57     705.20
107.67     643.00
107.77     711.00
107.87     736.17
107.97     758.09
108.07     662.00
108.17     693.00
108.27     658.00
108.37     674.00
108.47     762.64
108.57     688.27
108.67     697.00
108.77     689.00
108.87     665.13
108.97     756.31
109.07     684.00
109.17     634.00
109.27     665.00
109.37     699.49
109.47     739.00
109.57     715.00
109.67     697.00
109.77     713.00
109.87     652.00
109.97     623.49
110.07     634.38
110.17     632.94
110.27     645.00
110.37     627.34
110.47     589.00
110.57     621.00
110.67     620.00
110.77     604.00
110.87     622.15
110.97     567.95
111.07     582.00
111.17     514.88
111.27     570.00
111.37     597.27
111.47     571.00
111.57     585.00
111.67     524.62
111.77     531.71
111.87     565.00
111.97     542.00
112.07     579.00
112.17     585.00
112.27     553.11
112.37     528.55
112.47     540.22
112.57     537.00
112.67     528.92
112.77     549.00
112.87     561.00
112.97     605.00
113.07     580.00
113.17     540.97
113.27     581.00
113.37     535.98
113.47     571.00
113.57     618.51
113.67     586.00
113.77     601.00
113.87     617.06
113.97     608.00
114.07     683.00
114.17     751.26
114.27     740.00
114.37     806.00
114.47     820.00
114.57     860.00
114.67     955.00
114.77     986.00
114.87    1061.07
114.97    1238.00
115.07    1384.32
115.17    1535.00
115.27    1729.00
115.37    1975.00
115.47    2206.00
115.57    2412.00
115.67    2595.00
115.77    2943.00
115.87    3222.00
115.97    3490.13
116.07    3986.00
116.17    4279.00
116.27    4758.00
116.37    4961.00
116.47    5375.00
116.57    5871.65
116.67    6039.00
116.77    6311.41
116.87    6452.75
116.97    6682.00
117.07    6769.19
117.17    6952.60
117.27    6994.25
117.37    6861.00
117.47    6803.00
117.57    6571.00
117.67    6247.00
117.77    5872.67
117.87    5644.00
117.97    5147.00
118.07    5102.36
118.17    4627.00
118.27    4184.48
118.37    3930.00
118.47    3550.66
118.57    3177.34
118.67    2950.78
118.77    2607.00
118.87    2488.75
118.97    2102.00
119.07    1894.97
119.17    1770.00
119.27    1607.16
119.37    1474.00
119.47    1331.20
119.57    1143.59
119.67    1181.79
119.77     961.00
119.87    1019.00
119.97     868.00
120.07     898.06
120.17     782.00
120.27     794.55
120.37     786.00
120.47     689.77
120.57     667.00
120.67     655.22
120.77     654.00
120.87     589.00
120.97     626.74
121.07     651.00
121.17     626.00
121.27     605.00
121.37     649.14
121.47     559.17
121.57     616.04
121.67     601.70
121.77     651.79
121.87     583.00
121.97     586.00
122.07     627.24
122.17     622.00
122.27     633.05
122.37     564.20
122.47     592.00
122.57     613.60
122.67     652.68
122.77     575.48
122.87     612.00
122.97     591.00
123.07     620.00
123.17     642.00
123.27     691.00
123.37     624.00
123.47     637.00
123.57     627.00
123.67     671.00
123.77     644.00
123.87     644.13
123.97     680.00
124.07     646.00
124.17     592.00
124.27     655.00
124.37     623.38
124.47     620.00
124.57     590.91
124.67     634.84
124.77     559.62
124.87     644.00
124.97     596.00
