  9.97     574.44
 10.07     670.00
 10.17     709.00
 10.27     678.00
 10.37     678.00
 10.47     688.00
 10.57     621.00
 10.67     681.00
 10.77     638.00
 10.87     592.40
 10.97     678.00
 11.07     620.96
 11.17     646.36
 11.27     642.09
 11.37     672.00
 11.47     664.00
 11.57     630.00
 11.67     640.97
 11.77     698.00
 11.87     715.76
 11.97     768.00
 12.07     723.00
 12.17     735.55
 12.27     729.34
 12.37     768.10
 12.47     753.00
 12.57     711.08
 12.67     638.00
 12.77     602.00
 12.87     633.00
 12.97     600.00
 13.07     587.74
 13.17     580.50
 13.27     627.01
 13.37     608.02
 13.47     679.00
 13.57     657.00
 13.67     607.00
 13.77     627.00
 13.87     587.00
 13.97     598.63
 14.07     641.45
 14.17     618.00
 14.27     633.93
 14.37     638.00
 14.47     621.51
 14.57     612.00
 14.67     663.27
 14.77     644.00
 14.87     606.13
 14.97     670.61
 15.07     603.00
 15.17     624.00
 15.27     589.00
 15.37     690.63
 15.47     633.00
 15.57     613.05
 15.67     586.00
 15.77     650.12
 15.87     611.89
 15.97     685.85
 16.07     603.00
 16.17     629.00
 16.27     594.09
 16.37     633.00
 16.47     652.85
 16.57     608.00
 16.67     655.13
 16.77     584.00
 16.87     672.30
 16.97     633.00
 17.07     606.00
 17.17     649.75
 17.27     602.00
 17.37     549.00
 17.47     601.00
 17.57     618.00
 17.67     590.00
 17.77     647.12
 17.87     578.00
 17.97     625.21
 18.07     618.28
 18.17     624.00
 18.27     607.00
 18.37     598.50
 18.47     672.39
 18.57     674.58
 18.67     594.00
 18.77     627.00
 18.87     630.00
 18.97     656.51
 19.07     627.32
 19.17     631.00
 19.27     599.00
 19.37     592.00
 19.47     584.34
 19.57     610.00
 19.67     613.00
 19.77     627.00
 19.87     610.00
 19.97     560.00
 20.07     550.00
 20.17     626.06
 20.27     590.00
 20.37     620.00
 20.47     644.77
 20.57     625.00
 20.67     603.00
 20.77     581.00
 20.87     591.44
 20.97     605.95
 21.07     586.94
 21.17     631.50
 21.27     625.00
 21.37     597.00
 21.47     680.10
 21.57     608.00
 21.67     595.00
 21.77     656.00
 21.87     598.67
 21.97     594.00
 22.07     617.00
 22.17     574.00
 22.27     665.91
 22.37     620.35
 22.47     683.53
 22.57     602.88
 22.67     622.69
 22.77     622.00
 22.87     635.24
 22.97     609.00
 23.07     623.00
 23.17     591.00
 23.27     580.55
 23.37     655.00
 23.47     620.00
 23.57     633.00
 23.67     676.00
 23.77     630.00
 23.87     621.00
 23.97     602.00
 24.07     642.00
 24.17     623.00
 24.27     684.00
 24.37     604.00
 24.47     630.88
 24.57     660.00
 24.67     669.69
 24.77     756.00
 24.87     742.00
 24.97     673.00
 25.07     706.00
 25.17     701.00
 25.27     650.00
 25.37     638.00
 25.47     693.54
 25.57     675.73
 25.67     695.00
 25.77     646.00
 25.87     668.00
 25.97     655.41
 26.07     672.00
 26.17     662.00
 26.27     679.46
 26.37     696.00
 26.47     654.00
 26.57     656.68
 26.67     633.16
 26.77     686.00
 26.87     681.00
 26.97     668.00
 27.07     683.00
 27.17     632.42
 27.27     667.73
 27.37     724.00
 27.47     778.00
 27.57     771.00
 27.67     758.00
 27.77     633.79
 27.87     746.00
 27.97     839.00
 28.07     842.00
 28.17     885.54
 28.27     943.22
 28.37    1104.00
 28.47    1047.63
 28.57     851.02
 28.67     948.00
 28.77     843.69
 28.87    1022.00
 28.97     995.00
 29.07     986.00
 29.17     989.00
 29.27     954.00
 29.37     838.00
 29.47     836.00
 29.57     808.00
 29.67     703.00
 29.77     742.00
 29.87     742.00
 29.97     571.59
 30.07     560.54
 30.17     766.00
 30.27     708.00
 30.37     675.00
 30.47     691.00
 30.57     566.09
 30.67     639.00
 30.77     657.09
 30.87     740.00
 30.97     712.00
 31.07     773.00
 31.17     713.00
 31.27     645.48
 31.37     627.73
 31.47     675.00
 31.57     595.74
 31.67     600.00
 31.77     555.84
 31.87     623.00
 31.97     612.09
 32.07     633.49
 32.17     632.28
 32.27     602.00
 32.37     554.10
 32.47     662.00
 32.57     587.01
 32.67     650.55
 32.77     585.00
 32.87     591.00
 32.97     645.00
 33.07     620.00
 33.17     574.06
 33.27     608.00
 33.37     618.63
 33.47     663.00
 33.57     639.30
 33.67     649.00
 33.77     747.65
 33.87     744.00
 33.97     966.11
 34.07    1014.00
 34.17    1085.19
 34.27    1070.06
 34.37     951.00
 34.47     846.00
 34.57     762.07
 34.67     725.94
 34.77     609.00
 34.87     649.00
 34.97     606.00
 35.07     606.00
 35.17     588.00
 35.27     562.12
 35.37     603.00
 35.47     547.06
 35.57     547.00
 35.67     508.00
 35.77     573.90
 35.87     579.00
 35.97     541.96
 36.07     563.96
 36.17     574.00
 36.27     628.12
 36.37     567.00
 36.47     549.00
 36.57     612.38
 36.67     539.58
 36.77     526.00
 36.87     570.00
 36.97     560.00
 37.07     523.53
 37.17     579.63
 37.27     551.00
 37.37     597.66
 37.47     552.00
 37.57     562.39
 37.67     547.00
 37.77     543.00
 37.87     568.00
 37.97     531.75
 38.07     589.41
 38.17     548.00
 38.27     526.00
 38.37     557.91
 38.47     527.35
 38.57     518.00
 38.67     580.09
 38.77     560.00
 38.87     593.92
 38.97     562.00
 39.07     518.00
 39.17     608.59
 39.27     527.27
 39.37     528.00
 39.47     554.00
 39.57     506.00
 39.67     506.00
 39.77     561.00
 39.87     565.00
 39.97     536.00
 40.07     531.25
 40.17     502.00
 40.27     553.00
 40.37     523.00
 40.47     597.00
 40.57     550.00
 40.67     529.34
 40.77     515.00
 40.87     537.00
 40.97     518.93
 41.07     568.30
 41.17     515.00
 41.27     542.00
 41.37     564.00
 41.47     551.44
 41.57     509.00
 41.67     527.58
 41.77     583.82
 41.87     499.13
 41.97     609.14
 42.07     553.00
 42.17     599.00
 42.27     540.00
 42.37     589.83
 42.47     557.47
 42.57     570.21
 42.67     614.00
 42.77     610.00
 42.87     665.08
 42.97     665.04
 43.07     583.00
 43.17     615.00
 43.27     568.83
 43.37     530.30
 43.47     526.00
 43.57     499.00
 43.67     552.00
 43.77     531.00
 43.87     520.00
 43.97     506.15
 44.07     531.92
 44.17     539.00
 44.27     571.00
 44.37     539.34
 44.47     564.00
 44.57     578.00
 44.67     519.00
 44.77     562.00
 44.87     577.00
 44.97     590.75
 45.07     570.46
 45.17     527.61
 45.27     576.00
 45.37     582.10
 45.47     487.60
 45.57     567.90
 45.67     491.46
 45.77     517.30
 45.87     500.00
 45.97     541.00
 46.07     545.00
 46.17     501.00
 46.27     547.00
 46.37     543.97
 46.47     554.00
 46.57     573.05
 46.67     543.00
 46.77     565.00
 46.87     550.12
 46.97     545.00
 47.07     553.00
 47.17     545.00
 47.27     558.50
 47.37     603.00
 47.47     508.00
 47.57     531.33
 47.67     608.00
 47.77     610.00
 47.87     649.32
 47.97     619.00
 48.07     672.00
 48.17     619.00
 48.27     631.95
 48.37     614.00
 48.47     624.00
 48.57     577.00
 48.67     621.67
 48.77     554.00
 48.87     588.00
 48.97     624.00
 49.07     551.00
 49.17     594.00
 49.27     539.00
 49.37     620.00
 49.47     600.44
 49.57     693.73
 49.67     744.00
 49.77     735.00
 49.87     980.00
 49.97    1132.00
 50.07    1517.00
 50.17    1814.00
 50.27    2109.43
 50.37    2335.46
 50.47    2314.00
 50.57    2087.40
 50.67    1859.28
 50.77    1523.00
 50.87    1153.00
 50.97     954.00
 51.07     893.46
 51.17     722.89
 51.27     682.82
 51.37     717.09
 51.47     648.00
 51.57     627.00
 51.67     582.96
 51.77     641.35
 51.87     639.56
 51.97     620.82
 52.07     636.00
 52.17     616.00
 52.27     526.83
 52.37     583.00
 52.47     603.00
 52.57     629.59
 52.67     578.00
 52.77     632.00
 52.87     603.00
 52.97     666.38
 53.07     655.20
 53.17     761.37
 53.27     833.00
 53.37     910.00
 53.47    1008.00
 53.57    1101.00
 53.67    1190.00
 53.77    1257.00
 53.87    1267.00
 53.97    1070.00
 54.07    1016.00
 54.17     962.23
 54.27     823.51
 54.37     754.00
 54.47     674.00
 54.57     695.86
 54.67     583.91
 54.77     653.00
 54.87     658.31
 54.97     632.97
 55.07     569.00
 55.17     621.58
 55.27     600.00
 55.37     594.00
 55.47     608.00
 55.57     598.00
 55.67     588.58
 55.77     600.00
 55.87     646.00
 55.97     645.00
 56.07     634.07
 56.17     762.65
 56.27     690.00
 56.37     836.00
 56.47    1054.91
 56.57    1172.00
 56.67    1524.94
 56.77    1686.29
 56.87    2109.00
 56.97    2261.73
 57.07    2550.31
 57.17    2596.00
 57.27    2468.00
 57.37    2128.00
 57.47    1831.00
 57.57    1560.00
 57.67    1204.00
 57.77    1091.00
 57.87     924.00
 57.97     795.00
 58.07     825.00
 58.17     726.00
 58.27     694.92
 58.37     696.15
 58.47     706.37
 58.57     865.00
 58.67     815.00
 58.77     991.59
 58.87    1055.29
 58.97    1049.00
 59.07    1205.00
 59.17    1229.00
 59.27    1236.00
 59.37    1223.24
 59.47    1325.00
 59.57    1264.08
 59.67    1233.00
 59.77    1202.00
 59.87    1182.00
 59.97    1186.00
 60.07    1282.00
 60.17    1330.00
 60.27    1473.63
 60.37    1477.80
 60.47    1633.35
 60.57    1488.41
 60.67    1545.00
 60.77    1361.00
 60.87    1232.57
 60.97    1108.18
 61.07     906.00
 61.17     857.32
 61.27     785.70
 61.37     781.00
 61.47     665.68
 61.57     763.00
 61.67     811.21
 61.77     837.00
 61.87     880.00
 61.97     991.00
 62.07    1072.00
 62.17    1211.44
 62.27    1357.57
 62.37    1405.60
 62.47    1290.00
 62.57    1370.00
 62.67    1226.00
 62.77    1116.84
 62.87    1013.04
 62.97     968.30
 63.07     877.55
 63.17     751.00
 63.27     671.00
 63.37     670.00
 63.47     665.00
 63.57     622.00
 63.67     615.53
 63.77     619.00
 63.87     621.48
 63.97     672.69
 64.07     681.00
 64.17     690.00
 64.27     752.00
 64.37     735.03
 64.47     893.00
 64.57     891.77
 64.67     944.95
 64.77    1099.00
 64.87    1071.46
 64.97    1116.00
 65.07    1069.00
 65.17    1056.82
 65.27     945.00
 65.37     875.00
 65.47     861.00
 65.57     773.00
 65.67     799.00
 65.77     735.00
 65.87     731.00
 65.97     679.00
 66.07     669.86
 66.17     640.00
 66.27     603.00
 66.37     604.69
 66.47     608.00
 66.57     632.42
 66.67     621.00
 66.77     596.00
 66.87     637.00
 66.97     661.00
 67.07     599.95
 67.17     719.68
 67.27     655.00
 67.37     795.00
 67.47     780.17
 67.57     888.00
 67.67    1010.00
 67.77    1155.00
 67.87    1331.00
 67.97    1685.54
 68.07    1924.50
 68.17    2163.00
 68.27    2299.00
 68.37    2407.72
 68.47    2409.00
 68.57    2324.00
 68.67    2167.00
 68.77    1898.00
 68.87    1598.72
 68.97    1382.00
 69.07    1297.02
 69.17     975.00
 69.27     954.03
 69.37     790.00
 69.47     720.18
 69.57     750.00
 69.67     675.00
 69.77     691.00
 69.87     656.00
 69.97     643.00
 70.07     623.00
 70.17     661.47
 70.27     564.81
 70.37     605.59
 70.47     660.00
 70.57     585.00
 70.67     670.48
 70.77     585.02
 70.87     610.00
 70.97     600.00
 71.07     675.00
 71.17     682.00
 71.27     692.00
 71.37     734.00
 71.47     770.00
 71.57     901.00
 71.67     940.56
 71.77    1204.37
 71.87    1272.00
 71.97    1501.00
 72.07    1581.00
 72.17    1701.00
 72.27    1881.00
 72.37    1870.00
 72.47    1811.00
 72.57    1748.00
 72.67    1581.00
 72.77    1531.00
 72.87    1307.00
 72.97    1219.00
 73.07    1085.00
 73.17     905.00
 73.27     808.00
 73.37     750.00
 73.47     774.00
 73.57     718.00
 73.67     701.15
 73.77     629.00
 73.87     659.00
 73.97     630.00
 74.07     610.00
 74.17     543.81
 74.27     652.00
 74.37     588.81
 74.47     594.62
 74.57     697.00
 74.67     629.00
 74.77     629.00
 74.87     682.00
 74.97     674.00
 75.07     664.00
 75.17     681.00
 75.27     662.00
 75.37     672.00
 75.47     552.06
 75.57     612.59
 75.67     580.80
 75.77     587.00
 75.87     633.63
 75.97     621.37
 76.07     626.37
 76.17     601.00
 76.27     611.00
 76.37     611.97
 76.47     689.00
 76.57     728.00
 76.67     696.00
 76.77     723.00
 76.87     724.00
 76.97     732.29
 77.07     670.53
 77.17     667.00
 77.27     698.00
 77.37     684.00
 77.47     650.24
 77.57     587.07
 77.67     611.00
 77.77     587.00
 77.87     579.91
 77.97     632.89
 78.07     582.00
 78.17     586.00
 78.27     553.89
 78.37     557.00
 78.47     569.00
 78.57     536.00
 78.67     556.00
 78.77     580.39
 78.87     546.00
 78.97     539.97
 79.07     499.46
 79.17     555.79
 79.27     539.00
 79.37     564.00
 79.47     572.00
 79.57     577.15
 79.67     559.00
 79.77     527.00
 79.87     591.00
 79.97     560.88
 80.07     578.00
 80.17     540.00
 80.27     548.00
 80.37     523.69
 80.47     591.00
 80.57     599.00
 80.67     602.00
 80.77     632.10
 80.87     696.84
 80.97     704.66
 81.07     701.23
 81.17     655.00
 81.27     712.00
 81.37     750.95
 81.47     811.00
 81.57     742.00
 81.67     698.00
 81.77     754.00
 81.87     764.69
 81.97     766.00
 82.07     730.00
 82.17     799.22
 82.27     806.83
 82.37     782.47
 82.47     672.88
 82.57     666.00
 82.67     695.71
 82.77     626.90
 82.87     668.25
 82.97     629.00
 83.07     592.00
 83.17     613.90
 83.27     575.00
 83.37     595.00
 83.47     613.00
 83.57     533.00
 83.67     601.29
 83.77     604.00
 83.87     559.63
 83.97     583.49
 84.07     552.00
 84.17     563.00
 84.27     598.00
 84.37     647.47
 84.47     662.92
 84.57     552.80
 84.67     565.75
 84.77     596.00
 84.87     582.00
 84.97     515.00
 85.07     591.00
 85.17     558.00
 85.27     603.00
 85.37     511.56
 85.47     601.77
 85.57     560.00
 85.67     564.00
 85.77     528.00
 85.87     539.00
 85.97     537.48
 86.07     594.40
 86.17     546.00
 86.27     531.00
 86.37     593.67
 86.47     526.00
 86.57     588.00
 86.67     611.91
 86.77     593.65
 86.87     600.00
 86.97     541.88
 87.07     602.93
 87.17     612.00
 87.27     618.00
 87.37     626.00
 87.47     657.00
 87.57     583.07
 87.67     636.00
 87.77     689.00
 87.87     676.88
 87.97     615.73
 88.07     648.00
 88.17     701.26
 88.27     664.01
 88.37     668.00
 88.47     643.00
 88.57     613.00
 88.67     618.36
 88.77     577.00
 88.87     577.00
 88.97     587.00
 89.07     582.00
 89.17     621.29
 89.27     609.00
 89.37     584.60
 89.47     594.00
 89.57     647.00
 89.67     654.68
 89.77     613.58
 89.87     641.00
 89.97     613.15
 90.07     659.00
 90.17     597.04
 90.27     634.00
 90.37     567.10
 90.47     599.00
 90.57     639.46
 90.67     552.00
 90.77     564.00
 90.87     599.67
 90.97     503.00
 91.07     568.00
 91.17     515.52
 91.27     509.00
 91.37     570.00
 91.47     539.00
 91.57     561.48
 91.67     528.00
 91.77     528.00
 91.87     552.00
 91.97     559.00
 92.07     544.00
 92.17     549.51
 92.27     566.00
 92.37     540.00
 92.47     588.00
 92.57     604.88
 92.67     588.00
 92.77     651.79
 92.87     559.00
 92.97     704.00
 93.07     693.08
 93.17     654.00
 93.27     685.00
 93.37     728.98
 93.47     683.06
 93.57     789.00
 93.67     723.00
 93.77     779.00
 93.87     776.00
 93.97     787.69
 94.07     816.00
 94.17     811.00
 94.27     849.63
 94.37     820.00
 94.47     837.62
 94.57     886.00
 94.67     842.65
 94.77     890.00
 94.87     907.75
 94.97     859.68
 95.07     932.00
 95.17     963.00
 95.27     924.00
 95.37     945.00
 95.47     892.68
 95.57     914.00
 95.67     904.95
 95.77     802.00
 95.87     841.00
 95.97     771.91
 96.07     814.41
 96.17     812.00
 96.27     807.35
 96.37     810.38
 96.47     797.00
 96.57     792.00
 96.67     772.00
 96.77     797.00
 96.87     850.00
 96.97     900.00
 97.07     928.00
 97.17     932.56
 97.27    1000.67
 97.37    1123.00
 97.47    1206.00
 97.57    1267.22
 97.67    1348.00
 97.77    1383.00
 97.87    1420.00
 97.97    1479.00
 98.07    1485.00
 98.17    1512.97
 98.27    1470.00
 98.37    1419.87
 98.47    1391.00
 98.57    1341.00
 98.67    1280.00
 98.77    1192.00
 98.87    1153.00
 98.97    1130.09
 99.07    1016.00
 99.17    1003.00
 99.27     903.00
 99.37     952.00
 99.47     881.54
 99.57     941.00
 99.67     972.00
 99.77     983.00
 99.87    1087.06
 99.97    1045.00
100.07    1176.00
100.17    1196.00
100.27    1315.00
100.37    1480.00
100.47    1535.00
100.57    1591.00
100.67    1666.00
100.77    1754.00
100.87    1789.45
100.97    1821.00
101.07    1994.00
101.17    1948.00
101.27    2036.00
101.37    2031.00
101.47    1866.92
101.57    1973.55
101.67    1947.00
101.77    1824.00
101.87    1790.00
101.97    1727.00
102.07    1569.96
102.17    1578.00
102.27    1484.00
102.37    1396.14
102.47    1372.00
102.57    1326.00
102.67    1344.39
102.77    1274.06
102.87    1257.11
102.97    1195.12
103.07    1150.00
103.17    1178.31
103.27    1145.00
103.37    1083.00
103.47    1035.87
103.57    1094.79
103.67    1016.00
103.77     951.00
103.87     870.43
103.97     876.00
104.07     827.00
104.17     816.10
104.27     812.23
104.37     753.00
104.47     702.23
104.57     710.00
104.67     682.00
104.77     654.99
104.87     634.00
104.97     614.00
105.07     642.00
105.17     617.00
105.27     591.21
105.37     540.60
105.47     524.86
105.57     567.00
105.67     559.68
105.77     579.04
105.87     580.00
105.97     588.00
106.07     549.00
106.17     594.00
106.27     582.00
106.37     564.00
106.47     558.00
106.57     590.00
106.67     616.16
106.77     631.00
106.87     632.00
106.97     667.00
107.07     625.61
107.17     661.00
107.27     632.08
107.37     702.00
107.47     642.28
107.57     700.01
107.67     750.00
107.77     704.00
107.87     680.00
107.97     724.00
108.07     715.00
108.17     681.00
108.27     749.71
108.37     695.00
108.47     712.00
108.57     717.00
108.67     715.00
108.77     684.00
108.87     690.00
108.97     710.00
109.07     722.00
109.17     717.00
109.27     726.00
109.37     704.00
109.47     722.34
109.57     700.00
109.67     708.00
109.77     701.00
109.87     700.14
109.97     659.80
110.07     696.00
110.17     639.68
110.27     686.00
110.37     653.00
110.47     615.65
110.57     656.87
110.67     654.00
110.77     590.38
110.87     553.99
110.97     556.00
111.07     581.53
111.17     620.00
111.27     596.00
111.37     588.00
111.47     607.00
111.57     569.00
111.67     540.00
111.77     566.86
111.87     562.00
111.97     545.00
112.07     613.00
112.17     569.00
112.27     569.00
112.37     532.35
112.47     611.00
112.57     536.00
112.67     573.00
112.77     606.04
112.87     543.41
112.97     621.90
113.07     592.00
113.17     564.90
113.27     601.32
113.37     593.92
113.47     603.00
113.57     566.58
113.67     570.35
113.77     687.61
113.87     693.22
113.97     616.60
114.07     632.04
114.17     698.00
114.27     675.79
114.37     783.00
114.47     799.00
114.57     833.62
114.67     870.27
114.77     941.39
114.87     997.00
114.97    1059.80
115.07    1138.00
115.17    1367.00
115.27    1417.34
115.37    1692.00
115.47    1824.64
115.57    2049.00
115.67    2266.00
115.77    2510.00
115.87    2809.00
115.97    3102.00
116.07    3342.00
116.17    3627.51
116.27    4222.12
116.37    4582.00
116.47    4946.00
116.57    5309.50
116.67    5644.00
116.77    5778.49
116.87    6261.00
116.97    6656.00
117.07    6762.88
117.17    6879.90
117.27    7187.00
117.37    6983.00
117.47    7021.00
117.57    7032.25
117.67    6639.00
117.77    6498.41
117.87    6278.44
117.97    5841.00
118.07    5378.00
118.17    5154.00
118.27    5019.99
118.37    4490.00
118.47    4165.00
118.57    3879.00
118.67    3425.83
118.77    3083.00
118.87    2847.00
118.97    2551.00
119.07    2283.00
119.17    2024.20
119.27    1837.00
119.37    1790.91
119.47    1517.00
119.57    1395.00
119.67    1295.00
119.77    1260.00
119.87    1212.00
119.97    1051.00
120.07     962.00
120.17     885.00
120.27     856.00
120.37     804.00
120.47     750.00
120.57     789.00
120.67     680.88
120.77     680.65
120.87     674.00
120.97     739.80
121.07     699.00
121.17     657.00
121.27     640.00
121.37     640.13
121.47     664.13
121.57     650.00
121.67     598.00
121.77     634.10
121.87     567.00
121.97     594.00
122.07     651.00
122.17     656.00
122.27     621.00
122.37     609.00
122.47     590.11
122.57     692.80
122.67     617.00
122.77     655.00
122.87     629.00
122.97     633.40
123.07     615.00
123.17     661.00
123.27     603.71
123.37     625.69
123.47     643.00
123.57     699.40
123.67     651.00
123.77     706.00
123.87     712.77
123.97     698.95
124.07     670.00
124.17     665.00
124.27     656.00
124.37     671.00
124.47     693.74
124.57     636.00
124.67     651.00
124.77     571.92
124.87     620.00
124.97     637.00
