  9.97     628.00
 10.07     590.83
 10.17     555.21
 10.27     562.00
 10.37     603.00
 10.47     563.75
 10.57     594.00
 10.67     555.00
 10.77     592.00
 10.87     577.00
 10.97     586.00
 11.07     578.00
 11.17     552.72
 11.27     580.20
 11.37     592.00
 11.47     578.00
 11.57     581.00
 11.67     587.00
 11.77     582.00
 11.87     600.00
 11.97     649.00
 12.07     649.52
 12.17     679.00
 12.27     655.00
 12.37     636.08
 12.47     634.00
 12.57     618.00
 12.67     590.00
 12.77     585.00
 12.87     592.00
 12.97     559.00
 13.07     578.00
 13.17     587.00
 13.27     561.00
 13.37     592.00
 13.47     506.00
 13.57     582.00
 13.67     541.00
 13.77     614.42
 13.87     586.30
 13.97     585.00
 14.07     538.00
 14.17     560.00
 14.27     532.00
 14.37     566.85
 14.47     533.00
 14.57     545.00
 14.67     540.84
 14.77     570.63
 14.87     523.00
 14.97     560.43
 15.07     547.00
 15.17     622.00
 15.27     542.49
 15.37     526.00
 15.47     578.91
 15.57     567.14
 15.67     583.00
 15.77     551.00
 15.87     547.00
 15.97     575.00
 16.07     610.94
 16.17     571.00
 16.27     526.00
 16.37     562.00
 16.47     564.96
 16.57     535.00
 16.67     566.00
 16.77     590.00
 16.87     569.00
 16.97     547.00
 17.07     527.15
 17.17     567.00
 17.27     576.00
 17.37     564.65
 17.47     537.70
 17.57     570.00
 17.67     529.00
 17.77     549.87
 17.87     541.00
 17.97     558.00
 18.07     576.07
 18.17     567.00
 18.27     557.00
 18.37     593.43
 18.47     602.41
 18.57     576.50
 18.67     533.00
 18.77     552.00
 18.87     581.00
 18.97     558.93
 19.07     536.22
 19.17     522.10
 19.27     560.00
 19.37     582.08
 19.47     586.00
 19.57     520.00
 19.67     612.50
 19.77     597.00
 19.87     530.00
 19.97     606.00
 20.07     546.00
 20.17     547.00
 20.27     599.37
 20.37     612.39
 20.47     595.28
 20.57     567.90
 20.67     535.00
 20.77     567.42
 20.87     542.00
 20.97     520.68
 21.07     538.00
 21.17     533.00
 21.27     527.05
 21.37     596.03
 21.47     524.81
 21.57     556.43
 21.67     571.00
 21.77     550.00
 21.87     613.00
 21.97     582.00
 22.07     560.00
 22.17     555.00
 22.27     605.52
 22.37     545.00
 22.47     528.00
 22.57     554.00
 22.67     607.00
 22.77     612.00
 22.87     564.00
 22.97     537.00
 23.07     548.00
 23.17     563.00
 23.27     536.00
 23.37     601.11
 23.47     522.80
 23.57     584.00
 23.67     541.39
 23.77     556.78
 23.87     515.00
 23.97     552.00
 24.07     525.59
 24.17     627.00
 24.27     550.00
 24.37     620.00
 24.47     580.00
 24.57     643.11
 24.67     607.00
 24.77     687.00
 24.87     628.32
 24.97     685.00
 25.07     630.00
 25.17     581.00
 25.27     586.00
 25.37     597.00
 25.47     533.64
 25.57     555.29
 25.67     610.72
 25.77     584.00
 25.87     573.25
 25.97     579.00
 26.07     579.00
 26.17     531.00
 26.27     547.59
 26.37     550.00
 26.47     562.19
 26.57     623.00
 26.67     593.00
 26.77     545.17
 26.87     606.17
 26.97     589.00
 27.07     591.00
 27.17     614.28
 27.27     606.32
 27.37     561.00
 27.47     585.47
 27.57     634.00
 27.67     599.00
 27.77     562.63
 27.87     638.00
 27.97     671.00
 28.07     759.00
 28.17     847.00
 28.27     952.00
 28.37     908.39
 28.47     901.00
 28.57     776.00
 28.67     750.00
 28.77     728.00
 28.87     799.00
 28.97     860.00
 29.07     842.00
 29.17     777.65
 29.27     732.00
 29.37     646.00
 29.47     599.00
 29.57     630.00
 29.67     655.00
 29.77     630.44
 29.87     583.00
 29.97     588.00
 30.07     579.00
 30.17     526.60
 30.27     550.57
 30.37     598.00
 30.47     592.11
 30.57     624.05
 30.67     596.00
 30.77     594.43
 30.87     620.00
 30.97     640.00
 31.07     635.00
 31.17     643.63
 31.27     606.00
 31.37     596.00
 31.47     515.64
 31.57     590.00
 31.67     595.55
 31.77     552.00
 31.87     576.00
 31.97     527.11
 32.07     558.00
 32.17     535.33
 32.27     555.00
 32.37     549.00
 32.47     529.00
 32.57     537.00
 32.67     572.42
 32.77     541.00
 32.87     520.83
 32.97     579.00
 33.07     560.00
 33.17     501.77
 33.27     540.00
 33.37     594.24
 33.47     552.00
 33.57     573.00
 33.67     614.29
 33.77     666.00
 33.87     756.00
 33.97     870.17
 34.07     949.00
 34.17     998.64
 34.27     955.00
 34.37     900.00
 34.47     782.99
 34.57     689.52
 34.67     580.16
 34.77     556.31
 34.87     596.00
 34.97     550.00
 35.07     504.87
 35.17     546.94
 35.27     499.00
 35.37     543.00
 35.47     511.85
 35.57     510.00
 35.67     544.55
 35.77     563.74
 35.87     484.00
 35.97     566.07
 36.07     544.00
 36.17     535.00
 36.27     531.00
 36.37     548.24
 36.47     468.24
 36.57     501.00
 36.67     517.00
 36.77     514.00
 36.87     453.00
 36.97     486.00
 37.07     481.84
 37.17     514.62
 37.27     506.00
 37.37     509.00
 37.47     557.34
 37.57     527.00
 37.67     553.00
 37.77     553.00
 37.87     562.00
 37.97     557.00
 38.07     520.00
 38.17     548.83
 38.27     552.00
 38.37     534.00
 38.47     473.00
 38.57     518.00
 38.67     478.39
 38.77     521.83
 38.87     475.71
 38.97     483.92
 39.07     486.93
 39.17     541.11
 39.27     468.42
 39.37     461.91
 39.47     453.00
 39.57     517.18
 39.67     504.00
 39.77     493.00
 39.87     473.30
 39.97     497.00
 40.07     533.00
 40.17     437.00
 40.27     496.00
 40.37     519.00
 40.47     505.00
 40.57     481.00
 40.67     496.00
 40.77     491.00
 40.87     489.38
 40.97     508.00
 41.07     530.23
 41.17     542.00
 41.27     488.00
 41.37     471.00
 41.47     511.00
 41.57     478.00
 41.67     476.76
 41.77     477.00
 41.87     545.00
 41.97     482.00
 42.07     507.00
 42.17     505.00
 42.27     544.82
 42.37     522.00
 42.47     522.76
 42.57     615.91
 42.67     593.85
 42.77     582.00
 42.87     616.59
 42.97     553.00
 43.07     604.00
 43.17     488.00
 43.27     514.00
 43.37     523.00
 43.47     528.00
 43.57     458.77
 43.67     489.00
 43.77     468.42
 43.87     457.57
 43.97     476.00
 44.07     516.00
 44.17     525.00
 44.27     451.49
 44.37     532.27
 44.47     505.00
 44.57     536.00
 44.67     445.00
 44.77     503.00
 44.87     494.00
 44.97     476.75
 45.07     487.12
 45.17     467.00
 45.27     454.11
 45.37     496.00
 45.47     484.00
 45.57     502.89
 45.67     515.03
 45.77     534.00
 45.87     506.24
 45.97     475.83
 46.07     485.00
 46.17     487.00
 46.27     489.55
 46.37     470.44
 46.47     479.00
 46.57     501.00
 46.67     500.00
 46.77     487.00
 46.87     465.00
 46.97     510.00
 47.07     558.00
 47.17     534.50
 47.27     507.52
 47.37     534.00
 47.47     508.00
 47.57     552.00
 47.67     533.00
 47.77     536.00
 47.87     584.00
 47.97     593.57
 48.07     631.66
 48.17     553.20
 48.27     586.00
 48.37     533.00
 48.47     551.00
 48.57     526.00
 48.67     487.00
 48.77     579.43
 48.87     499.55
 48.97     476.00
 49.07     517.00
 49.17     519.02
 49.27     563.00
 49.37     587.00
 49.47     540.13
 49.57     650.79
 49.67     724.00
 49.77     749.85
 49.87    1012.00
 49.97    1260.00
 50.07    1591.00
 50.17    2000.11
 50.27    2242.87
 50.37    2266.18
 50.47    2208.14
 50.57    1940.00
 50.67    1521.00
 50.77    1177.00
 50.87     979.07
 50.97     742.00
 51.07     660.61
 51.17     648.00
 51.27     590.35
 51.37     642.00
 51.47     584.00
 51.57     576.54
 51.67     552.00
 51.77     594.87
 51.87     558.00
 51.97     580.00
 52.07     593.00
 52.17     544.00
 52.27     564.61
 52.37     516.28
 52.47     588.00
 52.57     572.00
 52.67     521.91
 52.77     561.00
 52.87     570.00
 52.97     611.00
 53.07     685.25
 53.17     691.00
 53.27     861.00
 53.37     959.52
 53.47    1076.00
 53.57    1172.00
 53.67    1205.55
 53.77    1125.74
 53.87    1146.00
 53.97     996.00
 54.07     873.00
 54.17     822.07
 54.27     747.61
 54.37     668.00
 54.47     602.00
 54.57     613.92
 54.67     610.00
 54.77     600.34
 54.87     557.00
 54.97     553.00
 55.07     588.15
 55.17     586.33
 55.27     601.00
 55.37     566.00
 55.47     577.38
 55.57     523.76
 55.67     633.00
 55.77     599.20
 55.87     623.23
 55.97     628.00
 56.07     642.00
 56.17     713.00
 56.27     729.74
 56.37     930.05
 56.47    1022.00
 56.57    1298.64
 56.67    1529.00
 56.77    1857.00
 56.87    2170.91
 56.97    2454.00
 57.07    2463.00
 57.17    2394.00
 57.27    2197.00
 57.37    1836.00
 57.47    1531.65
 57.57    1261.00
 57.67    1094.00
 57.77     968.13
 57.87     854.25
 57.97     756.00
 58.07     782.00
 58.17     730.00
 58.27     716.00
 58.37     729.02
 58.47     757.00
 58.57     804.49
 58.67     891.00
 58.77    1038.45
 58.87    1120.32
 58.97    1074.00
 59.07    1209.00
 59.17    1297.00
 59.27    1302.00
 59.37    1196.04
 59.47    1253.40
 59.57    1238.73
 59.67    1161.19
 59.77    1136.53
 59.87    1187.00
 59.97    1276.37
 60.07    1227.40
 60.17    1350.00
 60.27    1514.00
 60.37    1598.00
 60.47    1521.36
 60.57    1435.00
 60.67    1384.00
 60.77    1202.48
 60.87    1057.00
 60.97     882.40
 61.07     813.59
 61.17     740.00
 61.27     737.00
 61.37     694.94
 61.47     738.71
 61.57     728.00
 61.67     711.00
 61.77     812.00
 61.87     901.00
 61.97     950.00
 62.07    1078.38
 62.17    1251.00
 62.27    1242.00
 62.37    1341.00
 62.47    1312.00
 62.57    1289.97
 62.67    1110.39
 62.77     982.63
 62.87     863.00
 62.97     801.00
 63.07     730.00
 63.17     635.00
 63.27     659.00
 63.37     621.00
 63.47     566.58
 63.57     542.57
 63.67     616.00
 63.77     595.32
 63.87     602.00
 63.97     617.00
 64.07     649.44
 64.17     698.27
 64.27     751.00
 64.37     785.00
 64.47     883.00
 64.57     865.00
 64.67     931.00
 64.77    1001.00
 64.87    1061.00
 64.97    1027.00
 65.07     945.00
 65.17     913.91
 65.27     888.27
 65.37     796.00
 65.47     752.64
 65.57     762.82
 65.67     702.00
 65.77     668.82
 65.87     614.00
 65.97     566.00
 66.07     570.62
 66.17     569.00
 66.27     566.93
 66.37     578.00
 66.47     611.27
 66.57     522.00
 66.67     528.13
 66.77     566.80
 66.87     571.00
 66.97     583.00
 67.07     614.00
 67.17     618.00
 67.27     664.00
 67.37     798.26
 67.47     833.00
 67.57     911.00
 67.67    1193.65
 67.77    1376.25
 67.87    1453.00
 67.97    1825.07
 68.07    2043.85
 68.17    2258.00
 68.27    2275.00
 68.37    2340.00
 68.47    2310.12
 68.57    2015.00
 68.67    1841.00
 68.77    1628.00
 68.87    1283.53
 68.97    1183.00
 69.07     994.00
 69.17     906.87
 69.27     808.00
 69.37     751.00
 69.47     675.00
 69.57     630.94
 69.67     602.18
 69.77     599.00
 69.87     615.00
 69.97     579.00
 70.07     536.36
 70.17     573.00
 70.27     544.35
 70.37     606.00
 70.47     616.00
 70.57     596.98
 70.67     607.00
 70.77     597.24
 70.87     573.00
 70.97     633.95
 71.07     602.00
 71.17     699.04
 71.27     687.51
 71.37     755.00
 71.47     815.00
 71.57     910.00
 71.67    1101.00
 71.77    1246.73
 71.87    1442.00
 71.97    1642.00
 72.07    1729.00
 72.17    1767.00
 72.27    1810.00
 72.37    1890.00
 72.47    1754.84
 72.57    1563.67
 72.67    1440.71
 72.77    1344.00
 72.87    1126.25
 72.97    1016.00
 73.07     970.46
 73.17     839.00
 73.27     755.35
 73.37     739.00
 73.47     664.45
 73.57     610.00
 73.67     633.00
 73.77     619.35
 73.87     625.45
 73.97     558.00
 74.07     547.00
 74.17     620.69
 74.27     630.00
 74.37     581.00
 74.47     640.00
 74.57     574.00
 74.67     647.00
 74.77     606.00
 74.87     662.00
 74.97     649.00
 75.07     619.04
 75.17     692.00
 75.27     601.00
 75.37     611.00
 75.47     559.84
 75.57     540.22
 75.67     577.00
 75.77     582.00
 75.87     582.87
 75.97     630.95
 76.07     592.00
 76.17     633.00
 76.27     657.62
 76.37     615.00
 76.47     638.97
 76.57     706.22
 76.67     685.00
 76.77     666.00
 76.87     737.96
 76.97     683.00
 77.07     667.00
 77.17     701.41
 77.27     637.00
 77.37     614.12
 77.47     597.96
 77.57     587.00
 77.67     528.88
 77.77     549.08
 77.87     552.00
 77.97     562.00
 78.07     546.19
 78.17     487.00
 78.27     536.00
 78.37     523.00
 78.47     557.49
 78.57     551.00
 78.67     520.80
 78.77     548.00
 78.87     540.67
 78.97     498.34
 79.07     566.00
 79.17     514.00
 79.27     531.60
 79.37     557.08
 79.47     490.00
 79.57     484.00
 79.67     509.00
 79.77     512.00
 79.87     500.00
 79.97     548.80
 80.07     532.00
 80.17     540.72
 80.27     536.00
 80.37     542.00
 80.47     522.56
 80.57     578.13
 80.67     580.00
 80.77     603.73
 80.87     562.00
 80.97     622.45
 81.07     636.00
 81.17     703.00
 81.27     730.08
 81.37     762.00
 81.47     679.00
 81.57     695.00
 81.67     698.00
 81.77     707.00
 81.87     706.00
 81.97     725.00
 82.07     725.00
 82.17     715.00
 82.27     678.00
 82.37     631.76
 82.47     594.25
 82.57     641.00
 82.67     590.13
 82.77     589.97
 82.87     627.93
 82.97     600.00
 83.07     530.89
 83.17     585.00
 83.27     543.00
 83.37     537.00
 83.47     539.50
 83.57     533.00
 83.67     571.85
 83.77     533.22
 83.87     523.00
 83.97     514.00
 84.07     518.00
 84.17     544.00
 84.27     561.00
 84.37     559.00
 84.47     539.00
 84.57     553.36
 84.67     582.98
 84.77     500.00
 84.87     507.92
 84.97     543.00
 85.07     475.00
 85.17     538.00
 85.27     474.00
 85.37     561.00
 85.47     501.86
 85.57     507.00
 85.67     484.00
 85.77     491.00
 85.87     512.47
 85.97     482.00
 86.07     500.06
 86.17     527.00
 86.27     543.00
 86.37     538.87
 86.47     472.17
 86.57     472.37
 86.67     502.48
 86.77     512.00
 86.87     515.24
 86.97     493.49
 87.07     533.82
 87.17     569.00
 87.27     555.83
 87.37     632.00
 87.47     582.14
 87.57     614.00
 87.67     661.00
 87.77     666.00
 87.87     658.47
 87.97     614.00
 88.07     565.00
 88.17     641.56
 88.27     567.51
 88.37     572.00
 88.47     533.00
 88.57     549.00
 88.67     561.00
 88.77     564.89
 88.87     539.29
 88.97     562.00
 89.07     541.00
 89.17     603.00
 89.27     567.21
 89.37     577.00
 89.47     581.52
 89.57     574.00
 89.67     558.30
 89.77     588.00
 89.87     593.86
 89.97     596.00
 90.07     546.00
 90.17     605.61
 90.27     536.56
 90.37     525.55
 90.47     508.00
 90.57     578.84
 90.67     474.00
 90.77     525.67
 90.87     539.00
 90.97     506.00
 91.07     457.00
 91.17     465.00
 91.27     523.00
 91.37     504.00
 91.47     493.00
 91.57     534.00
 91.67     517.00
 91.77     515.00
 91.87     493.00
 91.97     547.55
 92.07     548.00
 92.17     544.00
 92.27     526.07
 92.37     563.00
 92.47     610.00
 92.57     520.00
 92.67     556.00
 92.77     641.64
 92.87     629.00
 92.97     614.00
 93.07     635.00
 93.17     666.00
 93.27     676.00
 93.37     661.00
 93.47     708.00
 93.57     734.00
 93.67     764.00
 93.77     761.00
 93.87     767.27
 93.97     744.35
 94.07     808.00
 94.17     849.64
 94.27     853.00
 94.37     827.00
 94.47     882.00
 94.57     854.00
 94.67     804.87
 94.77     886.00
 94.87     892.75
 94.97     921.00
 95.07     907.26
 95.17     874.00
 95.27     941.00
 95.37     857.93
 95.47     894.00
 95.57     833.00
 95.67     830.00
 95.77     789.00
 95.87     756.00
 95.97     764.00
 96.07     722.00
 96.17     699.00
 96.27     679.31
 96.37     704.00
 96.47     730.58
 96.57     707.38
 96.67     772.00
 96.77     842.41
 96.87     859.00
 96.97     928.00
 97.07     968.00
 97.17    1092.64
 97.27    1075.00
 97.37    1162.57
 97.47    1222.06
 97.57    1256.24
 97.67    1380.00
 97.77    1457.72
 97.87    1426.00
 97.97    1410.01
 98.07    1458.00
 98.17    1347.64
 98.27    1362.92
 98.37    1251.13
 98.47    1178.00
 98.57    1210.21
 98.67    1128.70
 98.77    1069.88
 98.87     963.47
 98.97     986.69
 99.07     948.00
 99.17     869.00
 99.27     879.00
 99.37     890.42
 99.47     870.00
 99.57     877.19
 99.67     928.00
 99.77     992.00
 99.87    1040.00
 99.97    1215.03
100.07    1176.84
100.17    1272.97
100.27    1366.00
100.37    1501.93
100.47    1578.95
100.57    1684.00
100.67    1742.00
100.77    1844.00
100.87    1874.00
100.97    2018.00
101.07    1826.00
101.17    1876.71
101.27    1980.00
101.37    1858.00
101.47    1871.67
101.57    1756.00
101.67    1743.00
101.77    1730.67
101.87    1580.00
101.97    1532.22
102.07    1501.00
102.17    1425.00
102.27    1353.00
102.37    1364.00
102.47    1253.00
102.57    1184.00
102.67    1137.77
102.77    1131.58
102.87    1116.00
102.97    1073.27
103.07    1100.00
103.17    1075.41
103.27    1033.00
103.37    1001.39
103.47     945.00
103.57     917.00
103.67     881.00
103.77     827.00
103.87     855.00
103.97     731.22
104.07     817.00
104.17     732.04
104.27     679.00
104.37     631.00
104.47     602.00
104.57     646.00
104.67     598.00
104.77     575.00
104.87     499.98
104.97     541.00
105.07     620.00
105.17     566.00
105.27     548.37
105.37     514.00
105.47     554.79
105.57     526.00
105.67     568.00
105.77     558.00
105.87     565.51
105.97     553.00
106.07     530.00
106.17     570.00
106.27     547.00
106.37     588.00
106.47     572.00
106.57     575.33
106.67     612.03
106.77     634.59
106.87     572.74
106.97     634.00
107.07     628.00
107.17     608.00
107.27     627.00
107.37     617.58
107.47     686.00
107.57     704.00
107.67     678.00
107.77     655.00
107.87     682.00
107.97     670.00
108.07     668.00
108.17     675.28
108.27     612.00
108.37     647.00
108.47     664.00
108.57     671.40
108.67     703.00
108.77     687.00
108.87     668.72
108.97     637.00
109.07     664.00
109.17     639.38
109.27     656.07
109.37     661.18
109.47     651.00
109.57     657.00
109.67     694.00
109.77     654.00
109.87     656.87
109.97     657.00
110.07     665.98
110.17     623.13
110.27     600.00
110.37     615.00
110.47     582.16
110.57     624.00
110.67     590.00
110.77     616.00
110.87     553.00
110.97     534.95
111.07     596.00
111.17     522.00
111.27     520.00
111.37     529.86
111.47     557.06
111.57     537.00
111.67     519.00
111.77     539.66
111.87     562.00
111.97     510.82
112.07     569.00
112.17     576.00
112.27     552.00
112.37     543.93
112.47     596.38
112.57     601.00
112.67     583.00
112.77     569.00
112.87     524.00
112.97     597.93
113.07     609.69
113.17     556.00
113.27     634.00
113.37     562.00
113.47     572.00
113.57     601.00
113.67     618.00
113.77     648.00
113.87     613.00
113.97     747.32
114.07     738.00
114.17     768.00
114.27     787.92
114.37     830.00
114.47     848.00
114.57     895.00
114.67    1019.20
114.77    1076.19
114.87    1166.08
114.97    1302.40
115.07    1447.00
115.17    1612.00
115.27    1845.00
115.37    2061.00
115.47    2178.42
115.57    2575.00
115.67    2821.85
115.77    3141.00
115.87    3604.00
115.97    3850.98
116.07    4163.00
116.17    4479.00
116.27    4839.00
116.37    5107.00
116.47    5708.60
116.57    5747.19
116.67    6337.14
116.77    6477.00
116.87    6476.31
116.97    6920.04
117.07    6997.99
117.17    6867.86
117.27    6840.00
117.37    6711.92
117.47    6595.00
117.57    6338.98
117.67    6113.08
117.77    5575.00
117.87    5181.00
117.97    5155.99
118.07    4843.44
118.17    4241.00
118.27    4009.00
118.37    3737.92
118.47    3361.27
118.57    3078.00
118.67    2798.17
118.77    2391.00
118.87    2129.00
118.97    1937.00
119.07    1852.72
119.17    1498.00
119.27    1418.88
119.37    1328.00
119.47    1125.13
119.57    1083.00
119.67    1087.00
119.77    1008.00
119.87     856.20
119.97     836.00
120.07     781.00
120.17     764.05
120.27     712.00
120.37     665.64
120.47     691.28
120.57     648.00
120.67     659.00
120.77     616.69
120.87     585.53
120.97     556.00
121.07     600.00
121.17     560.00
121.27     577.00
121.37     554.00
121.47     579.00
121.57     619.33
121.67     630.00
121.77     585.00
121.87     589.00
121.97     573.00
122.07     601.00
122.17     622.00
122.27     572.00
122.37     608.00
122.47     611.74
122.57     618.00
122.67     649.00
122.77     624.00
122.87     664.62
122.97     637.00
123.07     617.00
123.17     649.35
123.27     621.00
123.37     613.00
123.47     633.00
123.57     665.56
123.67     657.00
123.77     626.00
123.87     625.00
123.97     623.45
124.07     584.37
124.17     610.71
124.27     625.00
124.37     620.00
124.47     616.24
124.57     609.00
124.67     611.81
124.77     614.00
124.87     578.00
124.97     565.00
