  9.97     587.00
 10.07     603.00
 10.17     636.00
 10.27     605.00
 10.37     604.00
 10.47     574.00
 10.57     606.00
 10.67     624.00
 10.77     562.96
 10.87     584.00
 10.97     519.00
 11.07     572.00
 11.17     596.17
 11.27     580.00
 11.37     541.62
 11.47     593.00
 11.57     579.88
 11.67     630.00
 11.77     616.00
 11.87     639.00
 11.97     666.00
 12.07     710.49
 12.17     688.00
 12.27     683.00
 12.37     635.00
 12.47     616.00
 12.57     617.00
 12.67     558.00
 12.77     575.00
 12.87     584.00
 12.97     609.62
 13.07     551.00
 13.17     588.86
 13.27     559.55
 13.37     578.00
 13.47     576.00
 13.57     515.00
 13.67     547.00
 13.77     533.26
 13.87     598.00
 13.97     526.00
 14.07     553.00
 14.17     544.00
 14.27     553.67
 14.37     595.40
 14.47     582.89
 14.57     570.00
 14.67     550.00
 14.77     575.00
 14.87     548.00
 14.97     594.55
 15.07     571.40
 15.17     550.00
 15.27     592.50
 15.37     573.00
 15.47     548.00
 15.57     523.00
 15.67     554.00
 15.77     596.00
 15.87     561.00
 15.97     608.01
 16.07     508.00
 16.17     570.69
 16.27     566.18
 16.37     546.00
 16.47     573.00
 16.57     529.11
 16.67     605.15
 16.77     583.85
 16.87     536.00
 16.97     574.00
 17.07     551.00
 17.17     565.00
 17.27     575.00
 17.37     571.00
 17.47     578.65
 17.57     527.00
 17.67     532.60
 17.77     525.84
 17.87     594.78
 17.97     540.00
 18.07     548.35
 18.17     547.00
 18.27     567.00
 18.37     575.00
 18.47     515.00
 18.57     538.93
 18.67     565.00
 18.77     546.74
 18.87     565.84
 18.97     568.00
 19.07     580.82
 19.17     555.00
 19.27     520.86
 19.37     519.00
 19.47     584.00
 19.57     572.00
 19.67     539.00
 19.77     555.93
 19.87     561.00
 19.97     549.00
 20.07     536.25
 20.17     533.00
 20.27     550.00
 20.37     535.00
 20.47     520.00
 20.57     593.00
 20.67     542.00
 20.77     590.38
 20.87     562.00
 20.97     557.14
 21.07     583.00
 21.17     546.19
 21.27     579.00
 21.37     577.00
 21.47     517.91
 21.57     549.00
 21.67     591.75
 21.77     547.91
 21.87     527.00
 21.97     533.58
 22.07     592.96
 22.17     545.00
 22.27     557.00
 22.37     564.00
 22.47     551.00
 22.57     571.00
 22.67     544.00
 22.77     567.27
 22.87     508.26
 22.97     576.00
 23.07     585.00
 23.17     564.00
 23.27     537.00
 23.37     531.58
 23.47     545.93
 23.57     564.00
 23.67     541.00
 23.77     533.00
 23.87     562.88
 23.97     524.00
 24.07     561.00
 24.17     562.74
 24.27     535.60
 24.37     597.35
 24.47     571.00
 24.57     623.00
 24.67     649.00
 24.77     672.00
 24.87     603.00
 24.97     585.00
 25.07     628.59
 25.17     562.82
 25.27     537.00
 25.37     573.00
 25.47     561.00
 25.57     527.00
 25.67     540.00
 25.77     514.77
 25.87     538.16
 25.97     583.00
 26.07     572.13
 26.17     543.00
 26.27     524.60
 26.37     528.00
 26.47     535.00
 26.57     542.56
 26.67     538.00
 26.77     563.00
 26.87     542.00
 26.97     522.00
 27.07     546.00
 27.17     548.00
 27.27     502.00
 27.37     608.00
 27.47     570.00
 27.57     566.00
 27.67     554.00
 27.77     572.00
 27.87     546.61
 27.97     679.78
 28.07     814.00
 28.17     905.42
 28.27     868.00
 28.37     863.00
 28.47     819.48
 28.57     724.00
 28.67     708.00
 28.77     700.80
 28.87     795.00
 28.97     812.49
 29.07     786.00
 29.17     676.00
 29.27     667.00
 29.37     624.00
 29.47     589.00
 29.57     579.80
 29.67     597.00
 29.77     595.00
 29.87     592.24
 29.97     605.00
 30.07     538.62
 30.17     569.00
 30.27     519.42
 30.37     523.35
 30.47     560.00
 30.57     581.98
 30.67     604.00
 30.77     604.46
 30.87     559.97
 30.97     630.04
 31.07     542.00
 31.17     559.00
 31.27     573.00
 31.37     519.53
 31.47     548.00
 31.57     524.00
 31.67     490.00
 31.77     569.53
 31.87     496.57
 31.97     563.98
 32.07     529.61
 32.17     558.00
 32.27     548.85
 32.37     504.00
 32.47     553.00
 32.57     527.00
 32.67     538.00
 32.77     565.93
 32.87     520.00
 32.97     572.00
 33.07     569.00
 33.17     534.00
 33.27     530.00
 33.37     579.81
 33.47     560.00
 33.57     566.00
 33.67     607.00
 33.77     719.02
 33.87     897.76
 33.97    1067.00
 34.07    1073.00
 34.17     979.00
 34.27     918.37
 34.37     821.69
 34.47     635.01
 34.57     618.00
 34.67     536.00
 34.77     558.00
 34.87     544.00
 34.97     523.00
 35.07     506.00
 35.17     531.00
 35.27     505.18
 35.37     530.49
 35.47     528.00
 35.57     517.00
 35.67     507.00
 35.77     508.00
 35.87     488.65
 35.97     543.00
 36.07     490.00
 36.17     548.84
 36.27     517.00
 36.37     521.00
 36.47     494.04
 36.57     537.00
 36.67     523.10
 36.77     511.98
 36.87     490.00
 36.97     479.90
 37.07     540.88
 37.17     529.00
 37.27     532.37
 37.37     538.00
 37.47     542.00
 37.57     521.00
 37.67     506.11
 37.77     516.00
 37.87     496.00
 37.97     541.94
 38.07     502.00
 38.17     496.00
 38.27     521.00
 38.37     490.41
 38.47     502.00
 38.57     509.53
 38.67     507.00
 38.77     478.69
 38.87     479.68
 38.97     502.49
 39.07     518.07
 39.17     492.39
 39.27     468.00
 39.37     540.26
 39.47     560.00
 39.57     535.00
 39.67     506.00
 39.77     536.62
 39.87     485.72
 39.97     521.72
 40.07     454.00
 40.17     499.00
 40.27     477.53
 40.37     507.00
 40.47     505.00
 40.57     516.00
 40.67     505.00
 40.77     523.91
 40.87     442.00
 40.97     496.26
 41.07     489.00
 41.17     506.00
 41.27     488.00
 41.37     499.96
 41.47     526.00
 41.57     472.00
 41.67     514.00
 41.77     522.00
 41.87     523.29
 41.97     548.07
 42.07     512.30
 42.17     550.90
 42.27     519.00
 42.37     584.90
 42.47     571.00
 42.57     610.00
 42.67     612.00
 42.77     617.80
 42.87     630.69
 42.97     542.43
 43.07     584.20
 43.17     554.00
 43.27     530.00
 43.37     506.05
 43.47     499.00
 43.57     512.00
 43.67     479.00
 43.77     491.00
 43.87     492.69
 43.97     509.00
 44.07     490.00
 44.17     518.00
 44.27     531.00
 44.37     509.00
 44.47     506.00
 44.57     483.37
 44.67     494.00
 44.77     494.43
 44.87     501.00
 44.97     546.00
 45.07     501.00
 45.17     517.56
 45.27     527.14
 45.37     541.51
 45.47     521.25
 45.57     539.00
 45.67     490.00
 45.77     480.00
 45.87     480.00
 45.97     502.00
 46.07     477.00
 46.17     495.00
 46.27     476.56
 46.37     545.50
 46.47     452.00
 46.57     524.00
 46.67     539.00
 46.77     506.00
 46.87     480.55
 46.97     489.00
 47.07     544.94
 47.17     518.81
 47.27     516.73
 47.37     527.00
 47.47     506.68
 47.57     531.00
 47.67     548.00
 47.77     633.00
 47.87     612.00
 47.97     609.00
 48.07     535.67
 48.17     577.00
 48.27     549.97
 48.37     526.00
 48.47     555.46
 48.57     530.00
 48.67     575.54
 48.77     532.00
 48.87     538.00
 48.97     526.00
 49.07     590.00
 49.17     574.00
 49.27     573.00
 49.37     636.31
 49.47     620.31
 49.57     644.39
 49.67     804.00
 49.77    1019.00
 49.87    1395.06
 49.97    1808.00
 50.07    2159.00
 50.17    2415.97
 50.27    2350.00
 50.37    2227.00
 50.47    1889.54
 50.57    1491.00
 50.67    1076.00
 50.77     797.00
 50.87     715.00
 50.97     707.00
 51.07     631.00
 51.17     647.21
 51.27     623.56
 51.37     600.00
 51.47     606.00
 51.57     580.80
 51.67     556.00
 51.77     558.00
 51.87     500.48
 51.97     546.00
 52.07     562.00
 52.17     528.39
 52.27     517.00
 52.37     571.28
 52.47     568.13
 52.57     508.23
 52.67     612.57
 52.77     608.00
 52.87     642.00
 52.97     738.00
 53.07     748.00
 53.17     900.00
 53.27     998.00
 53.37    1098.00
 53.47    1171.87
 53.57    1173.91
 53.67    1136.21
 53.77    1017.00
 53.87     879.00
 53.97     798.00
 54.07     706.08
 54.17     632.00
 54.27     596.00
 54.37     604.00
 54.47     576.00
 54.57     521.74
 54.67     559.00
 54.77     580.00
 54.87     530.50
 54.97     550.00
 55.07     549.94
 55.17     565.27
 55.27     532.95
 55.37     520.18
 55.47     550.25
 55.57     606.00
 55.67     580.00
 55.77     596.00
 55.87     600.00
 55.97     650.00
 56.07     723.58
 56.17     736.00
 56.27     897.00
 56.37    1111.00
 56.47    1278.00
 56.57    1761.00
 56.67    2135.00
 56.77    2364.00
 56.87    2603.00
 56.97    2660.00
 57.07    2473.47
 57.17    2082.00
 57.27    1731.00
 57.37    1393.00
 57.47    1104.00
 57.57     898.00
 57.67     777.00
 57.77     697.78
 57.87     675.00
 57.97     721.00
 58.07     680.00
 58.17     706.00
 58.27     725.00
 58.37     775.46
 58.47     922.66
 58.57     929.00
 58.67    1062.00
 58.77    1162.69
 58.87    1294.00
 58.97    1359.00
 59.07    1419.00
 59.17    1348.00
 59.27    1389.00
 59.37    1286.00
 59.47    1279.00
 59.57    1206.00
 59.67    1120.66
 59.77    1238.00
 59.87    1241.59
 59.97    1353.00
 60.07    1331.04
 60.17    1553.00
 60.27    1521.70
 60.37    1457.00
 60.47    1456.00
 60.57    1259.15
 60.67    1058.01
 60.77     925.00
 60.87     804.50
 60.97     730.00
 61.07     709.00
 61.17     632.00
 61.27     609.55
 61.37     637.00
 61.47     684.93
 61.57     726.00
 61.67     848.98
 61.77     962.00
 61.87    1101.00
 61.97    1178.16
 62.07    1315.77
 62.17    1401.79
 62.27    1385.00
 62.37    1366.83
 62.47    1217.00
 62.57    1050.48
 62.67     875.00
 62.77     755.00
 62.87     685.00
 62.97     654.00
 63.07     666.33
 63.17     582.00
 63.27     580.00
 63.37     557.00
 63.47     547.00
 63.57     567.88
 63.67     614.35
 63.77     581.00
 63.87     586.50
 63.97     665.00
 64.07     679.29
 64.17     763.00
 64.27     862.63
 64.37     942.97
 64.47     993.57
 64.57    1008.00
 64.67    1030.62
 64.77     952.00
 64.87     969.00
 64.97     875.13
 65.07     852.00
 65.17     741.00
 65.27     775.00
 65.37     643.00
 65.47     626.97
 65.57     643.53
 65.67     600.00
 65.77     578.00
 65.87     548.82
 65.97     584.61
 66.07     555.70
 66.17     562.99
 66.27     546.00
 66.37     585.78
 66.47     534.00
 66.57     591.00
 66.67     562.00
 66.77     529.00
 66.87     584.85
 66.97     592.96
 67.07     604.08
 67.17     740.64
 67.27     780.00
 67.37     872.25
 67.47    1023.00
 67.57    1225.97
 67.67    1518.00
 67.77    1723.00
 67.87    2016.00
 67.97    2141.70
 68.07    2384.21
 68.17    2373.00
 68.27    2338.15
 68.37    2084.71
 68.47    1778.07
 68.57    1616.00
 68.67    1318.00
 68.77    1103.37
 68.87     898.65
 68.97     805.00
 69.07     720.45
 69.17     721.00
 69.27     583.40
 69.37     632.00
 69.47     637.00
 69.57     579.00
 69.67     564.47
 69.77     577.00
 69.87     598.00
 69.97     554.00
 70.07     522.09
 70.17     578.24
 70.27     595.22
 70.37     558.00
 70.47     614.20
 70.57     577.00
 70.67     569.00
 70.77     637.00
 70.87     644.00
 70.97     687.25
 71.07     668.29
 71.17     774.00
 71.27     838.00
 71.37    1007.00
 71.47    1145.00
 71.57    1214.00
 71.67    1484.54
 71.77    1665.00
 71.87    1740.00
 71.97    1831.00
 72.07    1903.00
 72.17    1813.41
 72.27    1840.00
 72.37    1604.00
 72.47    1528.00
 72.57    1345.00
 72.67    1150.40
 72.77    1074.32
 72.87     894.46
 72.97     772.00
 73.07     784.00
 73.17     708.00
 73.27     701.00
 73.37     637.00
 73.47     618.00
 73.57     657.00
 73.67     604.92
 73.77     600.00
 73.87     584.00
 73.97     551.00
 74.07     588.00
 74.17     571.00
 74.27     589.73
 74.37     601.00
 74.47     596.59
 74.57     641.00
 74.67     602.00
 74.77     616.00
 74.87     591.24
 74.97     613.00
 75.07     599.00
 75.17     560.00
 75.27     631.00
 75.37     596.00
 75.47     591.33
 75.57     548.00
 75.67     602.00
 75.77     537.34
 75.87     592.00
 75.97     605.00
 76.07     625.00
 76.17     666.00
 76.27     667.21
 76.37     697.41
 76.47     720.00
 76.57     684.00
 76.67     730.50
 76.77     671.00
 76.87     668.00
 76.97     671.90
 77.07     631.00
 77.17     604.00
 77.27     594.00
 77.37     552.00
 77.47     583.00
 77.57     539.00
 77.67     495.00
 77.77     541.00
 77.87     523.89
 77.97     552.00
 78.07     524.00
 78.17     516.35
 78.27     481.00
 78.37     538.00
 78.47     491.54
 78.57     526.00
 78.67     486.00
 78.77     522.00
 78.87     519.00
 78.97     543.93
 79.07     513.00
 79.17     550.00
 79.27     488.00
 79.37     526.58
 79.47     506.00
 79.57     510.00
 79.67     478.00
 79.77     534.00
 79.87     574.00
 79.97     528.00
 80.07     515.63
 80.17     501.00
 80.27     550.00
 80.37     559.34
 80.47     628.00
 80.57     588.00
 80.67     612.83
 80.77     653.76
 80.87     646.83
 80.97     694.00
 81.07     712.00
 81.17     737.00
 81.27     767.00
 81.37     741.00
 81.47     715.00
 81.57     760.00
 81.67     721.96
 81.77     688.00
 81.87     690.00
 81.97     745.00
 82.07     719.29
 82.17     655.00
 82.27     672.61
 82.37     613.00
 82.47     602.98
 82.57     581.00
 82.67     572.00
 82.77     562.00
 82.87     607.79
 82.97     522.64
 83.07     539.00
 83.17     525.48
 83.27     564.00
 83.37     562.00
 83.47     567.00
 83.57     555.00
 83.67     524.26
 83.77     599.38
 83.87     584.00
 83.97     554.00
 84.07     578.00
 84.17     561.00
 84.27     529.00
 84.37     566.91
 84.47     556.00
 84.57     575.00
 84.67     540.00
 84.77     524.00
 84.87     522.00
 84.97     514.58
 85.07     522.00
 85.17     527.91
 85.27     524.00
 85.37     491.00
 85.47     524.00
 85.57     494.00
 85.67     529.00
 85.77     498.62
 85.87     505.00
 85.97     510.23
 86.07     524.00
 86.17     516.00
 86.27     496.00
 86.37     542.00
 86.47     569.00
 86.57     522.00
 86.67     579.00
 86.77     603.00
 86.87     604.38
 86.97     589.28
 87.07     598.00
 87.17     626.00
 87.27     588.08
 87.37     664.55
 87.47     582.00
 87.57     621.00
 87.67     663.81
 87.77     643.00
 87.87     653.54
 87.97     602.08
 88.07     544.94
 88.17     596.00
 88.27     591.42
 88.37     586.66
 88.47     587.00
 88.57     566.39
 88.67     575.10
 88.77     525.94
 88.87     542.00
 88.97     579.00
 89.07     591.00
 89.17     596.03
 89.27     588.00
 89.37     601.00
 89.47     639.20
 89.57     613.00
 89.67     625.45
 89.77     539.00
 89.87     536.06
 89.97     564.00
 90.07     546.00
 90.17     586.22
 90.27     533.58
 90.37     543.00
 90.47     501.35
 90.57     537.00
 90.67     553.81
 90.77     486.84
 90.87     462.00
 90.97     513.00
 91.07     506.74
 91.17     552.00
 91.27     518.00
 91.37     516.00
 91.47     517.00
 91.57     498.00
 91.67     570.35
 91.77     492.20
 91.87     554.47
 91.97     539.00
 92.07     557.00
 92.17     586.00
 92.27     596.00
 92.37     638.63
 92.47     646.96
 92.57     592.19
 92.67     642.00
 92.77     690.00
 92.87     682.71
 92.97     669.64
 93.07     725.00
 93.17     766.00
 93.27     770.00
 93.37     745.00
 93.47     790.00
 93.57     821.00
 93.67     812.00
 93.77     856.00
 93.87     828.00
 93.97     837.49
 94.07     819.00
 94.17     874.00
 94.27     892.00
 94.37     900.00
 94.47     853.00
 94.57     820.91
 94.67     892.00
 94.77     870.94
 94.87     839.97
 94.97     862.71
 95.07     889.66
 95.17     830.09
 95.27     833.64
 95.37     815.00
 95.47     767.79
 95.57     765.12
 95.67     762.60
 95.77     712.00
 95.87     701.23
 95.97     699.00
 96.07     651.00
 96.17     719.89
 96.27     774.51
 96.37     777.00
 96.47     772.92
 96.57     877.20
 96.67     915.00
 96.77     947.76
 96.87    1046.00
 96.97    1103.95
 97.07    1127.69
 97.17    1278.00
 97.27    1340.00
 97.37    1400.97
 97.47    1432.25
 97.57    1432.00
 97.67    1431.00
 97.77    1478.00
 97.87    1412.00
 97.97    1306.00
 98.07    1222.46
 98.17    1246.99
 98.27    1074.25
 98.37    1052.00
 98.47     989.00
 98.57     887.97
 98.67     902.00
 98.77     887.94
 98.87     864.66
 98.97     833.15
 99.07     786.93
 99.17     868.00
 99.27     946.42
 99.37     928.61
 99.47     974.00
 99.57    1013.93
 99.67    1059.00
 99.77    1247.00
 99.87    1310.00
 99.97    1488.00
100.07    1650.00
100.17    1718.00
100.27    1771.00
100.37    1916.57
100.47    1853.53
100.57    2054.97
100.67    2021.67
100.77    1985.00
100.87    2026.00
100.97    2037.21
101.07    1988.00
101.17    1913.60
101.27    1845.00
101.37    1692.00
101.47    1572.00
101.57    1532.80
101.67    1481.00
101.77    1433.55
101.87    1280.61
101.97    1245.00
102.07    1258.18
102.17    1207.00
102.27    1210.00
102.37    1172.00
102.47    1112.00
102.57    1051.83
102.67    1033.00
102.77    1062.50
102.87    1030.89
102.97     978.00
103.07     976.00
103.17     891.00
103.27     853.00
103.37     863.00
103.47     784.75
103.57     789.00
103.67     736.00
103.77     711.82
103.87     693.00
103.97     601.53
104.07     680.00
104.17     562.64
104.27     572.98
104.37     590.00
104.47     591.00
104.57     564.00
104.67     558.56
104.77     525.00
104.87     596.00
104.97     502.06
105.07     534.00
105.17     521.00
105.27     573.36
105.37     567.00
105.47     524.00
105.57     498.65
105.67     542.00
105.77     521.00
105.87     548.82
105.97     548.00
106.07     533.36
106.17     620.00
106.27     598.00
106.37     579.00
106.47     568.00
106.57     663.00
106.67     663.81
106.77     634.00
106.87     662.72
106.97     694.23
107.07     659.00
107.17     679.00
107.27     685.72
107.37     727.00
107.47     663.13
107.57     682.03
107.67     721.84
107.77     668.00
107.87     700.71
107.97     712.00
108.07     700.21
108.17     659.05
108.27     677.00
108.37     688.00
108.47     667.16
108.57     699.68
108.67     652.00
108.77     649.00
108.87     770.00
108.97     722.00
109.07     698.00
109.17     699.86
109.27     679.31
109.37     633.07
109.47     643.00
109.57     687.00
109.67     669.00
109.77     645.00
109.87     604.00
109.97     623.10
110.07     637.00
110.17     614.00
110.27     548.63
110.37     553.00
110.47     565.00
110.57     526.00
110.67     535.53
110.77     520.00
110.87     554.49
110.97     513.68
111.07     498.27
111.17     558.00
111.27     564.00
111.37     560.00
111.47     526.00
111.57     508.54
111.67     509.00
111.77     513.00
111.87     554.00
111.97     537.21
112.07     543.00
112.17     553.00
112.27     548.00
112.37     562.23
112.47     566.00
112.57     570.00
112.67     597.01
112.77     609.44
112.87     589.00
112.97     611.00
113.07     631.00
113.17     664.96
113.27     646.00
113.37     692.00
113.47     691.00
113.57     677.00
113.67     698.00
113.77     748.00
113.87     759.00
113.97     776.00
114.07     869.00
114.17     870.00
114.27     965.00
114.37    1058.00
114.47    1194.17
114.57    1220.00
114.67    1372.89
114.77    1655.00
114.87    1821.00
114.97    1957.00
115.07    2231.00
115.17    2303.18
115.27    2616.00
115.37    2945.00
115.47    3375.00
115.57    3639.40
115.67    4010.60
115.77    4285.00
115.87    4624.00
115.97    5057.00
116.07    5403.00
116.17    5745.87
116.27    6038.00
116.37    6284.00
116.47    6585.00
116.57    6624.43
116.67    6804.00
116.77    6993.00
116.87    6721.47
116.97    6647.26
117.07    6294.58
117.17    6175.00
117.27    5668.00
117.37    5375.00
117.47    5043.00
117.57    4797.00
117.67    4457.00
117.77    4087.15
117.87    3771.00
117.97    3390.71
118.07    2995.30
118.17    2690.49
118.27    2433.09
118.37    2125.00
118.47    1995.00
118.57    1726.00
118.67    1620.00
118.77    1412.79
118.87    1238.00
118.97    1077.00
119.07    1026.00
119.17     911.00
119.27     912.33
119.37     787.00
119.47     754.16
119.57     783.63
119.67     687.00
119.77     634.13
119.87     656.00
119.97     605.99
120.07     613.85
120.17     602.00
120.27     575.00
120.37     580.47
120.47     623.00
120.57     602.55
120.67     573.25
120.77     543.59
120.87     538.16
120.97     571.00
121.07     558.00
121.17     542.67
121.27     593.00
121.37     513.00
121.47     582.00
121.57     576.00
121.67     550.21
121.77     595.00
121.87     567.21
121.97     583.13
122.07     561.66
122.17     594.00
122.27     612.00
122.37     648.00
122.47     633.22
122.57     584.05
122.67     633.95
122.77     594.04
122.87     589.17
122.97     643.00
123.07     612.55
123.17     664.00
123.27     658.83
123.37     591.00
123.47     607.00
123.57     633.00
123.67     650.00
123.77     629.00
123.87     588.50
123.97     643.97
124.07     618.00
124.17     597.20
124.27     611.00
124.37     620.61
124.47     566.98
124.57     623.00
124.67     601.00
124.77     598.00
124.87     620.00
124.97     537.00
