  9.97     603.00
 10.07     579.00
 10.17     558.49
 10.27     530.19
 10.37     538.18
 10.47     563.00
 10.57     606.00
 10.67     600.00
 10.77     527.05
 10.87     538.00
 10.97     588.81
 11.07     576.73
 11.17     553.00
 11.27     589.80
 11.37     592.00
 11.47     576.00
 11.57     580.11
 11.67     535.74
 11.77     614.00
 11.87     595.00
 11.97     659.00
 12.07     687.00
 12.17     664.38
 12.27     667.00
 12.37     681.15
 12.47     683.00
 12.57     569.74
 12.67     551.22
 12.77     568.00
 12.87     555.06
 12.97     555.00
 13.07     551.21
 13.17     533.61
 13.27     568.00
 13.37     507.00
 13.47     535.00
 13.57     518.00
 13.67     534.00
 13.77     531.00
 13.87     580.59
 13.97     554.00
 14.07     582.00
 14.17     564.67
 14.27     606.00
 14.37     548.00
 14.47     573.00
 14.57     562.00
 14.67     565.00
 14.77     600.53
 14.87     575.00
 14.97     569.00
 15.07     534.00
 15.17     581.41
 15.27     526.00
 15.37     558.08
 15.47     540.00
 15.57     595.51
 15.67     557.62
 15.77     513.78
 15.87     558.00
 15.97     601.79
 16.07     561.15
 16.17     570.83
 16.27     510.00
 16.37     547.00
 16.47     559.57
 16.57     543.00
 16.67     561.32
 16.77     586.59
 16.87     558.00
 16.97     549.00
 17.07     538.00
 17.17     511.00
 17.27     590.90
 17.37     521.27
 17.47     550.00
 17.57     566.00
 17.67     562.07
 17.77     536.07
 17.87     591.25
 17.97     537.00
 18.07     552.85
 18.17     532.00
 18.27     509.00
 18.37     540.00
 18.47     526.00
 18.57     505.00
 18.67     535.25
 18.77     560.72
 18.87     568.87
 18.97     560.00
 19.07     511.94
 19.17     583.79
 19.27     541.00
 19.37     541.00
 19.47     516.00
 19.57     547.00
 19.67     585.28
 19.77     593.00
 19.87     539.95
 19.97     534.63
 20.07     543.00
 20.17     557.00
 20.27     543.00
 20.37     517.87
 20.47     568.00
 20.57     494.00
 20.67     548.13
 20.77     573.00
 20.87     572.08
 20.97     540.00
 21.07     538.00
 21.17     555.00
 21.27     576.82
 21.37     539.00
 21.47     518.32
 21.57     551.86
 21.67     506.00
 21.77     565.00
 21.87     578.00
 21.97     538.00
 22.07     504.43
 22.17     605.00
 22.27     574.00
 22.37     543.35
 22.47     536.00
 22.57     536.00
 22.67     574.00
 22.77     544.00
 22.87     525.00
 22.97     588.00
 23.07     534.00
 23.17     511.52
 23.27     516.68
 23.37     564.96
 23.47     508.11
 23.57     551.00
 23.67     559.00
 23.77     533.24
 23.87     537.00
 23.97     535.00
 24.07     563.00
 24.17     513.00
 24.27     567.00
 24.37     564.00
 24.47     542.92
 24.57     653.00
 24.67     615.00
 24.77     613.30
 24.87     616.00
 24.97     568.22
 25.07     582.00
 25.17     593.00
 25.27     596.00
 25.37     527.00
 25.47     556.00
 25.57     564.00
 25.67     584.46
 25.77     563.00
 25.87     555.00
 25.97     521.22
 26.07     575.43
 26.17     568.18
 26.27     565.00
 26.37     541.00
 26.47     506.42
 26.57     554.03
 26.67     574.00
 26.77     535.66
 26.87     537.00
 26.97     528.00
 27.07     532.00
 27.17     580.00
 27.27     549.00
 27.37     573.00
 27.47     556.69
 27.57     500.46
 27.67     577.63
 27.77     566.00
 27.87     545.26
 27.97     631.00
 28.07     748.00
 28.17     763.00
 28.27     968.00
 28.37     884.00
 28.47     851.08
 28.57     749.00
 28.67     675.10
 28.77     722.00
 28.87     766.97
 28.97     819.00
 29.07     828.60
 29.17     767.00
 29.27     687.71
 29.37     611.00
 29.47     563.64
 29.57     539.00
 29.67     568.00
 29.77     602.00
 29.87     566.86
 29.97     583.14
 30.07     566.00
 30.17     560.00
 30.27     578.22
 30.37     574.00
 30.47     603.00
 30.57     576.00
 30.67     537.00
 30.77     552.95
 30.87     612.99
 30.97     587.96
 31.07     599.50
 31.17     619.00
 31.27     583.00
 31.37     572.03
 31.47     564.54
 31.57     559.11
 31.67     500.11
 31.77     503.00
 31.87     529.08
 31.97     547.00
 32.07     571.00
 32.17     550.00
 32.27     583.00
 32.37     498.24
 32.47     566.28
 32.57     531.00
 32.67     513.00
 32.77     512.24
 32.87     592.00
 32.97     509.00
 33.07     518.91
 33.17     610.00
 33.27     512.31
 33.37     513.87
 33.47     530.35
 33.57     609.96
 33.67     669.17
 33.77     719.00
 33.87     801.00
 33.97     902.97
 34.07    1039.56
 34.17     998.11
 34.27     935.00
 34.37     811.00
 34.47     751.17
 34.57     613.00
 34.67     579.99
 34.77     562.00
 34.87     524.00
 34.97     521.00
 35.07     531.00
 35.17     502.00
 35.27     480.45
 35.37     524.00
 35.47     540.00
 35.57     532.46
 35.67     480.87
 35.77     533.00
 35.87     515.00
 35.97     513.66
 36.07     548.96
 36.17     538.80
 36.27     561.00
 36.37     465.73
 36.47     482.16
 36.57     484.00
 36.67     492.00
 36.77     491.00
 36.87     523.00
 36.97     502.00
 37.07     490.55
 37.17     482.00
 37.27     453.00
 37.37     518.00
 37.47     537.00
 37.57     498.72
 37.67     517.00
 37.77     551.00
 37.87     545.07
 37.97     465.00
 38.07     525.00
 38.17     477.00
 38.27     464.09
 38.37     479.12
 38.47     477.00
 38.57     467.50
 38.67     518.39
 38.77     482.25
 38.87     484.00
 38.97     504.00
 39.07     480.43
 39.17     538.61
 39.27     491.04
 39.37     496.00
 39.47     492.00
 39.57     523.00
 39.67     485.00
 39.77     487.00
 39.87     463.00
 39.97     529.41
 40.07     539.01
 40.17     471.39
 40.27     510.00
 40.37     503.06
 40.47     486.00
 40.57     515.00
 40.67     500.00
 40.77     465.00
 40.87     493.00
 40.97     496.00
 41.07     483.54
 41.17     500.00
 41.27     531.28
 41.37     484.13
 41.47     502.00
 41.57     438.00
 41.67     533.94
 41.77     478.00
 41.87     517.58
 41.97     505.00
 42.07     514.00
 42.17     520.00
 42.27     545.00
 42.37     533.00
 42.47     552.00
 42.57     637.00
 42.67     600.00
 42.77     529.00
 42.87     574.31
 42.97     536.00
 43.07     538.00
 43.17     495.00
 43.27     518.00
 43.37     515.72
 43.47     477.00
 43.57     482.52
 43.67     509.31
 43.77     461.70
 43.87     452.00
 43.97     492.00
 44.07     505.27
 44.17     514.00
 44.27     475.00
 44.37     493.00
 44.47     502.00
 44.57     482.11
 44.67     501.32
 44.77     480.59
 44.87     481.00
 44.97     457.00
 45.07     496.00
 45.17     481.00
 45.27     486.00
 45.37     493.00
 45.47     460.00
 45.57     498.68
 45.67     476.00
 45.77     493.00
 45.87     480.23
 45.97     488.00
 46.07     461.05
 46.17     513.02
 46.27     480.00
 46.37     518.78
 46.47     487.65
 46.57     498.00
 46.67     483.81
 46.77     517.00
 46.87     500.10
 46.97     511.00
 47.07     530.00
 47.17     532.00
 47.27     499.00
 47.37     501.95
 47.47     533.00
 47.57     500.41
 47.67     506.02
 47.77     549.00
 47.87     547.82
 47.97     558.37
 48.07     595.00
 48.17     580.00
 48.27     566.00
 48.37     551.41
 48.47     515.42
 48.57     548.55
 48.67     556.93
 48.77     495.04
 48.87     498.96
 48.97     501.29
 49.07     558.97
 49.17     514.00
 49.27     557.00
 49.37     555.00
 49.47     615.00
 49.57     721.00
 49.67     773.00
 49.77     939.22
 49.87    1186.00
 49.97    1481.54
 50.07    1817.00
 50.17    2155.47
 50.27    2397.00
 50.37    2179.00
 50.47    2001.97
 50.57    1727.71
 50.67    1414.00
 50.77     965.00
 50.87     862.30
 50.97     738.32
 51.07     655.00
 51.17     608.00
 51.27     644.00
 51.37     624.33
 51.47     598.00
 51.57     608.00
 51.67     579.00
 51.77     545.00
 51.87     550.03
 51.97     545.00
 52.07     530.00
 52.17     539.89
 52.27     569.00
 52.37     515.81
 52.47     569.00
 52.57     564.00
 52.67     592.00
 52.77     579.00
 52.87     609.00
 52.97     657.00
 53.07     702.00
 53.17     767.00
 53.27     935.00
 53.37     998.88
 53.47    1113.00
 53.57    1236.26
 53.67    1137.84
 53.77    1142.77
 53.87     987.74
 53.97     871.00
 54.07     786.00
 54.17     715.00
 54.27     652.65
 54.37     585.00
 54.47     627.22
 54.57     618.00
 54.67     631.00
 54.77     549.00
 54.87     553.00
 54.97     606.00
 55.07     586.00
 55.17     524.29
 55.27     530.00
 55.37     571.00
 55.47     585.00
 55.57     582.17
 55.67     578.00
 55.77     563.48
 55.87     600.00
 55.97     560.00
 56.07     676.00
 56.17     707.76
 56.27     845.42
 56.37     964.00
 56.47    1247.48
 56.57    1491.00
 56.67    1750.00
 56.77    2203.46
 56.87    2419.00
 56.97    2621.00
 57.07    2460.00
 57.17    2328.00
 57.27    1991.00
 57.37    1582.00
 57.47    1325.00
 57.57    1076.00
 57.67     961.00
 57.77     839.19
 57.87     727.00
 57.97     735.00
 58.07     698.00
 58.17     764.00
 58.27     648.00
 58.37     806.03
 58.47     833.24
 58.57     885.00
 58.67    1000.00
 58.77    1034.00
 58.87    1123.00
 58.97    1247.00
 59.07    1287.81
 59.17    1288.00
 59.27    1339.00
 59.37    1189.00
 59.47    1320.00
 59.57    1212.00
 59.67    1285.00
 59.77    1149.98
 59.87    1207.00
 59.97    1168.18
 60.07    1390.85
 60.17    1492.90
 60.27    1501.00
 60.37    1588.00
 60.47    1429.00
 60.57    1378.62
 60.67    1199.64
 60.77    1127.21
 60.87     915.24
 60.97     804.45
 61.07     769.00
 61.17     695.00
 61.27     646.00
 61.37     674.00
 61.47     655.00
 61.57     763.00
 61.67     732.00
 61.77     911.52
 61.87    1031.00
 61.97    1061.00
 62.07    1186.73
 62.17    1319.74
 62.27    1326.55
 62.37    1402.14
 62.47    1233.00
 62.57    1177.00
 62.67    1008.00
 62.77     965.63
 62.87     862.76
 62.97     696.40
 63.07     663.00
 63.17     605.00
 63.27     606.00
 63.37     580.84
 63.47     574.53
 63.57     528.06
 63.67     604.12
 63.77     592.00
 63.87     583.00
 63.97     611.00
 64.07     655.00
 64.17     737.57
 64.27     767.00
 64.37     843.00
 64.47     882.00
 64.57     943.00
 64.67    1011.00
 64.77    1015.00
 64.87     933.00
 64.97     983.00
 65.07     887.00
 65.17     885.00
 65.27     803.00
 65.37     745.00
 65.47     734.22
 65.57     650.00
 65.67     620.02
 65.77     595.00
 65.87     599.99
 65.97     590.83
 66.07     604.00
 66.17     566.11
 66.27     541.49
 66.37     538.00
 66.47     586.00
 66.57     530.00
 66.67     533.00
 66.77     543.00
 66.87     613.78
 66.97     578.00
 67.07     631.78
 67.17     656.00
 67.27     684.50
 67.37     801.37
 67.47     878.87
 67.57    1053.00
 67.67    1285.00
 67.77    1447.00
 67.87    1812.27
 67.97    2058.12
 68.07    2170.30
 68.17    2331.00
 68.27    2423.00
 68.37    2262.00
 68.47    2152.00
 68.57    1852.00
 68.67    1633.00
 68.77    1377.00
 68.87    1171.00
 68.97     951.69
 69.07     892.56
 69.17     805.00
 69.27     699.00
 69.37     629.83
 69.47     596.00
 69.57     604.12
 69.67     584.00
 69.77     604.00
 69.87     590.00
 69.97     559.00
 70.07     610.00
 70.17     559.00
 70.27     526.00
 70.37     570.00
 70.47     550.00
 70.57     596.00
 70.67     560.00
 70.77     602.00
 70.87     615.00
 70.97     609.00
 71.07     617.00
 71.17     663.00
 71.27     751.00
 71.37     893.87
 71.47     935.00
 71.57    1081.00
 71.67    1266.65
 71.77    1364.66
 71.87    1507.00
 71.97    1688.00
 72.07    1870.00
 72.17    1804.76
 72.27    1817.00
 72.37    1699.13
 72.47    1591.26
 72.57    1475.00
 72.67    1343.00
 72.77    1136.00
 72.87     963.00
 72.97     947.26
 73.07     812.00
 73.17     700.18
 73.27     692.00
 73.37     685.00
 73.47     692.00
 73.57     612.00
 73.67     641.97
 73.77     614.00
 73.87     590.00
 73.97     594.00
 74.07     601.00
 74.17     580.00
 74.27     543.00
 74.37     587.00
 74.47     622.74
 74.57     606.00
 74.67     609.79
 74.77     561.56
 74.87     638.00
 74.97     632.00
 75.07     602.00
 75.17     599.00
 75.27     612.00
 75.37     585.00
 75.47     566.00
 75.57     507.97
 75.67     557.20
 75.77     563.00
 75.87     561.57
 75.97     572.00
 76.07     619.00
 76.17     644.00
 76.27     627.48
 76.37     629.00
 76.47     660.00
 76.57     704.00
 76.67     650.10
 76.77     665.00
 76.87     689.00
 76.97     674.00
 77.07     692.40
 77.17     640.00
 77.27     619.00
 77.37     542.00
 77.47     582.00
 77.57     521.00
 77.67     494.00
 77.77     507.00
 77.87     523.84
 77.97     522.07
 78.07     494.00
 78.17     510.00
 78.27     508.00
 78.37     465.00
 78.47     474.28
 78.57     469.00
 78.67     476.12
 78.77     534.46
 78.87     504.00
 78.97     509.00
 79.07     520.91
 79.17     519.38
 79.27     509.00
 79.37     525.17
 79.47     484.00
 79.57     515.00
 79.67     535.80
 79.77     508.96
 79.87     538.71
 79.97     489.13
 80.07     519.90
 80.17     562.00
 80.27     555.00
 80.37     529.00
 80.47     540.00
 80.57     564.09
 80.67     617.47
 80.77     572.00
 80.87     624.00
 80.97     692.95
 81.07     687.00
 81.17     649.00
 81.27     679.00
 81.37     768.93
 81.47     682.00
 81.57     728.00
 81.67     723.64
 81.77     748.00
 81.87     712.00
 81.97     753.12
 82.07     688.00
 82.17     658.72
 82.27     685.00
 82.37     656.76
 82.47     613.92
 82.57     578.00
 82.67     618.00
 82.77     596.00
 82.87     528.44
 82.97     530.00
 83.07     555.16
 83.17     559.00
 83.27     521.00
 83.37     510.91
 83.47     565.94
 83.57     547.84
 83.67     577.81
 83.77     530.00
 83.87     566.88
 83.97     503.00
 84.07     548.62
 84.17     553.00
 84.27     512.00
 84.37     564.00
 84.47     556.00
 84.57     540.00
 84.67     560.58
 84.77     528.00
 84.87     544.00
 84.97     520.00
 85.07     516.00
 85.17     469.71
 85.27     552.66
 85.37     487.05
 85.47     552.00
 85.57     478.00
 85.67     520.00
 85.77     517.32
 85.87     543.23
 85.97     534.52
 86.07     526.00
 86.17     515.82
 86.27     495.00
 86.37     566.00
 86.47     565.00
 86.57     541.00
 86.67     547.66
 86.77     563.34
 86.87     545.00
 86.97     572.00
 87.07     560.00
 87.17     569.00
 87.27     604.00
 87.37     591.00
 87.47     643.00
 87.57     612.00
 87.67     641.41
 87.77     589.37
 87.87     643.35
 87.97     590.00
 88.07     591.47
 88.17     587.62
 88.27     588.00
 88.37     542.78
 88.47     554.00
 88.57     565.00
 88.67     561.00
 88.77     548.00
 88.87     569.26
 88.97     565.00
 89.07     527.01
 89.17     521.00
 89.27     527.16
 89.37     612.00
 89.47     629.00
 89.57     608.84
 89.67     569.00
 89.77     566.00
 89.87     569.00
 89.97     540.00
 90.07     569.00
 90.17     528.00
 90.27     501.20
 90.37     538.00
 90.47     500.00
 90.57     570.00
 90.67     539.00
 90.77     526.00
 90.87     522.61
 90.97     498.00
 91.07     537.09
 91.17     534.63
 91.27     516.26
 91.37     542.00
 91.47     475.00
 91.57     509.07
 91.67     474.00
 91.77     502.00
 91.87     507.00
 91.97     561.10
 92.07     513.00
 92.17     480.00
 92.27     552.00
 92.37     572.00
 92.47     527.00
 92.57     613.15
 92.67     646.51
 92.77     598.00
 92.87     610.00
 92.97     702.09
 93.07     676.60
 93.17     691.85
 93.27     737.00
 93.37     770.00
 93.47     745.01
 93.57     776.00
 93.67     811.00
 93.77     756.00
 93.87     787.00
 93.97     804.00
 94.07     864.00
 94.17     789.00
 94.27     842.00
 94.37     833.00
 94.47     810.71
 94.57     874.42
 94.67     883.00
 94.77     877.80
 94.87     882.00
 94.97     858.45
 95.07     897.00
 95.17     939.00
 95.27     860.80
 95.37     837.00
 95.47     833.00
 95.57     739.93
 95.67     692.35
 95.77     767.00
 95.87     756.00
 95.97     724.00
 96.07     684.00
 96.17     664.99
 96.27     701.94
 96.37     729.00
 96.47     753.00
 96.57     822.10
 96.67     825.00
 96.77     839.00
 96.87     904.00
 96.97    1002.00
 97.07    1111.00
 97.17    1080.18
 97.27    1169.74
 97.37    1280.00
 97.47    1326.00
 97.57    1375.00
 97.67    1453.11
 97.77    1413.00
 97.87    1403.00
 97.97    1383.00
 98.07    1345.00
 98.17    1287.00
 98.27    1177.00
 98.37    1150.00
 98.47    1150.00
 98.57    1050.20
 98.67     979.00
 98.77     978.00
 98.87     909.00
 98.97     894.26
 99.07     804.00
 99.17     870.29
 99.27     822.80
 99.37     898.00
 99.47     941.00
 99.57     981.92
 99.67     995.00
 99.77    1103.00
 99.87    1130.00
 99.97    1291.00
100.07    1489.00
100.17    1482.36
100.27    1527.41
100.37    1648.00
100.47    1741.00
100.57    1815.00
100.67    1861.10
100.77    1908.61
100.87    2003.00
100.97    1995.00
101.07    1963.92
101.17    1932.00
101.27    1942.74
101.37    1850.00
101.47    1797.00
101.57    1630.00
101.67    1566.63
101.77    1541.00
101.87    1449.00
101.97    1468.00
102.07    1317.00
102.17    1278.00
102.27    1256.00
102.37    1250.00
102.47    1120.66
102.57    1141.00
102.67    1164.00
102.77    1155.00
102.87    1040.00
102.97    1017.49
103.07    1009.00
103.17     951.09
103.27     908.71
103.37     934.32
103.47     931.93
103.57     873.00
103.67     821.17
103.77     804.62
103.87     715.00
103.97     697.25
104.07     616.42
104.17     671.00
104.27     569.57
104.37     563.84
104.47     585.86
104.57     539.35
104.67     519.00
104.77     560.00
104.87     541.00
104.97     559.00
105.07     592.00
105.17     527.00
105.27     515.55
105.37     534.00
105.47     549.00
105.57     534.00
105.67     555.50
105.77     530.00
105.87     502.42
105.97     556.00
106.07     557.00
106.17     543.00
106.27     535.00
106.37     535.00
106.47     588.33
106.57     576.00
106.67     597.94
106.77     570.00
106.87     595.00
106.97     580.00
107.07     636.00
107.17     613.00
107.27     681.91
107.37     599.00
107.47     674.00
107.57     696.49
107.67     682.75
107.77     688.02
107.87     738.00
107.97     722.72
108.07     631.00
108.17     706.00
108.27     695.22
108.37     679.00
108.47     636.00
108.57     726.07
108.67     643.42
108.77     655.37
108.87     690.00
108.97     702.00
109.07     717.84
109.17     655.00
109.27     684.32
109.37     684.00
109.47     683.00
109.57     641.43
109.67     660.00
109.77     668.00
109.87     683.00
109.97     615.97
110.07     590.00
110.17     591.00
110.27     622.00
110.37     572.00
110.47     546.42
110.57     508.00
110.67     603.00
110.77     579.00
110.87     565.99
110.97     512.38
111.07     531.00
111.17     509.00
111.27     558.87
111.37     525.00
111.47     567.00
111.57     548.42
111.67     573.99
111.77     568.00
111.87     565.00
111.97     519.00
112.07     520.00
112.17     552.00
112.27     520.00
112.37     527.30
112.47     523.00
112.57     520.00
112.67     544.00
112.77     547.76
112.87     563.00
112.97     570.00
113.07     602.42
113.17     573.00
113.27     626.00
113.37     649.00
113.47     616.45
113.57     625.49
113.67     639.91
113.77     668.00
113.87     689.29
113.97     726.00
114.07     819.03
114.17     858.06
114.27     834.00
114.37     856.00
114.47    1003.32
114.57    1016.09
114.67    1141.95
114.77    1245.00
114.87    1411.25
114.97    1616.00
115.07    1758.02
115.17    1850.22
115.27    2115.63
115.37    2516.00
115.47    2655.00
115.57    3054.00
115.67    3429.39
115.77    3693.00
115.87    4024.64
115.97    4334.06
116.07    4679.93
116.17    5120.00
116.27    5337.00
116.37    5805.77
116.47    6033.00
116.57    6379.00
116.67    6585.45
116.77    6795.00
116.87    7014.00
116.97    6665.00
117.07    6791.00
117.17    6703.00
117.27    6510.00
117.37    6187.00
117.47    5819.00
117.57    5671.00
117.67    5329.00
117.77    4978.00
117.87    4655.03
117.97    4180.00
118.07    3948.00
118.17    3648.42
118.27    3268.00
118.37    2865.22
118.47    2598.21
118.57    2416.53
118.67    2094.00
118.77    1953.90
118.87    1612.00
118.97    1469.00
119.07    1337.00
119.17    1199.00
119.27    1175.00
119.37     982.00
119.47    1029.00
119.57     929.00
119.67     817.00
119.77     755.00
119.87     800.45
119.97     698.00
120.07     653.68
120.17     703.00
120.27     629.00
120.37     655.00
120.47     621.00
120.57     627.00
120.67     584.00
120.77     629.40
120.87     573.00
120.97     609.00
121.07     585.00
121.17     535.78
121.27     574.00
121.37     554.00
121.47     555.00
121.57     542.00
121.67     566.00
121.77     554.19
121.87     610.00
121.97     580.00
122.07     611.72
122.17     610.91
122.27     574.94
122.37     590.16
122.47     650.98
122.57     570.41
122.67     617.00
122.77     641.00
122.87     626.00
122.97     625.00
123.07     660.58
123.17     649.00
123.27     602.60
123.37     604.20
123.47     633.00
123.57     671.61
123.67     667.32
123.77     640.00
123.87     588.02
123.97     626.00
124.07     591.42
124.17     612.35
124.27     652.00
124.37     582.85
124.47     609.00
124.57     622.24
124.67     646.00
124.77     598.00
124.87     610.51
124.97     564.34
