  9.97     631.00
 10.07     598.00
 10.17     601.57
 10.27     592.00
 10.37     575.00
 10.47     570.00
 10.57     587.00
 10.67     565.00
 10.77     562.13
 10.87     570.28
 10.97     595.00
 11.07     611.84
 11.17     576.00
 11.27     555.00
 11.37     562.19
 11.47     615.05
 11.57     588.00
 11.67     584.00
 11.77     645.00
 11.87     694.00
 11.97     680.00
 12.07     647.00
 12.17     663.00
 12.27     651.00
 12.37     652.00
 12.47     637.00
 12.57     569.00
 12.67     630.17
 12.77     598.38
 12.87     556.00
 12.97     572.00
 13.07     558.00
 13.17     548.00
 13.27     554.00
 13.37     517.00
 13.47     579.00
 13.57     544.00
 13.67     562.07
 13.77     565.23
 13.87     563.00
 13.97     557.00
 14.07     582.00
 14.17     591.86
 14.27     587.00
 14.37     558.00
 14.47     537.00
 14.57     589.00
 14.67     519.00
 14.77     578.00
 14.87     536.12
 14.97     563.00
 15.07     535.37
 15.17     527.80
 15.27     523.48
 15.37     533.60
 15.47     582.00
 15.57     596.98
 15.67     575.00
 15.77     571.53
 15.87     573.25
 15.97     548.00
 16.07     582.00
 16.17     528.22
 16.27     552.65
 16.37     598.00
 16.47     577.46
 16.57     540.00
 16.67     525.00
 16.77     570.60
 16.87     577.54
 16.97     517.00
 17.07     610.20
 17.17     611.18
 17.27     584.00
 17.37     524.38
 17.47     567.00
 17.57     524.00
 17.67     559.00
 17.77     537.00
 17.87     550.00
 17.97     598.83
 18.07     573.59
 18.17     529.49
 18.27     594.00
 18.37     544.00
 18.47     545.00
 18.57     565.00
 18.67     577.00
 18.77     570.00
 18.87     524.34
 18.97     586.00
 19.07     596.00
 19.17     546.00
 19.27     516.43
 19.37     539.00
 19.47     552.00
 19.57     597.43
 19.67     515.15
 19.77     576.00
 19.87     525.00
 19.97     602.99
 20.07     578.05
 20.17     583.95
 20.27     548.00
 20.37     561.91
 20.47     546.37
 20.57     592.92
 20.67     572.00
 20.77     519.68
 20.87     530.70
 20.97     552.00
 21.07     570.00
 21.17     545.16
 21.27     538.95
 21.37     543.00
 21.47     560.00
 21.57     553.00
 21.67     567.00
 21.77     560.16
 21.87     529.59
 21.97     526.00
 22.07     572.00
 22.17     521.41
 22.27     557.00
 22.37     566.00
 22.47     560.00
 22.57     544.00
 22.67     527.00
 22.77     554.00
 22.87     557.55
 22.97     522.00
 23.07     557.00
 23.17     548.00
 23.27     541.00
 23.37     510.31
 23.47     560.93
 23.57     532.00
 23.67     554.00
 23.77     566.00
 23.87     563.00
 23.97     521.00
 24.07     528.00
 24.17     555.00
 24.27     573.86
 24.37     591.34
 24.47     590.60
 24.57     608.00
 24.67     631.00
 24.77     596.00
 24.87     610.00
 24.97     601.00
 25.07     583.00
 25.17     560.00
 25.27     574.46
 25.37     589.00
 25.47     554.00
 25.57     573.15
 25.67     580.00
 25.77     547.00
 25.87     522.92
 25.97     534.00
 26.07     588.74
 26.17     519.31
 26.27     556.51
 26.37     558.00
 26.47     568.02
 26.57     500.04
 26.67     556.00
 26.77     575.45
 26.87     547.00
 26.97     560.00
 27.07     562.00
 27.17     539.00
 27.27     548.00
 27.37     509.00
 27.47     560.00
 27.57     589.00
 27.67     590.00
 27.77     584.00
 27.87     564.95
 27.97     645.00
 28.07     824.00
 28.17     897.00
 28.27     927.00
 28.37     959.86
 28.47     786.00
 28.57     716.00
 28.67     674.00
 28.77     774.00
 28.87     789.09
 28.97     827.00
 29.07     760.06
 29.17     721.00
 29.27     660.00
 29.37     599.00
 29.47     564.00
 29.57     580.11
 29.67     579.88
 29.77     550.00
 29.87     599.06
 29.97     566.00
 30.07     561.88
 30.17     569.95
 30.27     538.00
 30.37     497.91
 30.47     580.00
 30.57     506.80
 30.67     526.88
 30.77     618.00
 30.87     661.00
 30.97     604.00
 31.07     620.84
 31.17     600.00
 31.27     556.00
 31.37     569.00
 31.47     546.00
 31.57     546.62
 31.67     534.00
 31.77     499.15
 31.87     547.05
 31.97     535.00
 32.07     556.00
 32.17     541.00
 32.27     541.00
 32.37     505.00
 32.47     509.31
 32.57     562.00
 32.67     523.37
 32.77     572.00
 32.87     542.00
 32.97     547.00
 33.07     576.21
 33.17     521.00
 33.27     529.00
 33.37     558.00
 33.47     569.00
 33.57     592.00
 33.67     611.00
 33.77     753.00
 33.87     886.16
 33.97    1010.00
 34.07    1070.00
 34.17    1045.98
 34.27     876.00
 34.37     786.73
 34.47     666.60
 34.57     568.22
 34.67     572.00
 34.77     511.46
 34.87     535.00
 34.97     534.26
 35.07     571.00
 35.17     533.00
 35.27     550.00
 35.37     506.00
 35.47     529.00
 35.57     512.02
 35.67     534.00
 35.77     476.00
 35.87     501.00
 35.97     481.00
 36.07     455.00
 36.17     488.40
 36.27     520.00
 36.37     512.00
 36.47     547.00
 36.57     519.72
 36.67     524.00
 36.77     508.00
 36.87     510.00
 36.97     547.00
 37.07     551.12
 37.17     534.00
 37.27     554.00
 37.37     512.00
 37.47     522.00
 37.57     542.00
 37.67     548.00
 37.77     538.00
 37.87     543.73
 37.97     562.65
 38.07     548.00
 38.17     482.20
 38.27     558.77
 38.37     500.00
 38.47     480.32
 38.57     555.45
 38.67     484.00
 38.77     470.00
 38.87     490.00
 38.97     468.90
 39.07     506.00
 39.17     486.00
 39.27     515.00
 39.37     479.00
 39.47     500.00
 39.57     501.00
 39.67     537.00
 39.77     502.74
 39.87     521.00
 39.97     489.00
 40.07     487.44
 40.17     516.30
 40.27     507.00
 40.37     530.00
 40.47     466.21
 40.57     536.69
 40.67     532.64
 40.77     499.24
 40.87     558.00
 40.97     477.00
 41.07     481.00
 41.17     494.18
 41.27     517.00
 41.37     505.00
 41.47     496.00
 41.57     474.93
 41.67     499.00
 41.77     487.00
 41.87     516.00
 41.97     493.00
 42.07     484.00
 42.17     484.00
 42.27     562.00
 42.37     578.00
 42.47     583.00
 42.57     596.00
 42.67     612.00
 42.77     580.94
 42.87     527.00
 42.97     617.60
 43.07     557.00
 43.17     488.00
 43.27     510.92
 43.37     504.00
 43.47     497.00
 43.57     489.00
 43.67     530.00
 43.77     515.00
 43.87     502.00
 43.97     484.06
 44.07     516.00
 44.17     527.00
 44.27     513.00
 44.37     530.00
 44.47     465.24
 44.57     487.49
 44.67     535.00
 44.77     539.36
 44.87     496.00
 44.97     480.00
 45.07     488.00
 45.17     530.00
 45.27     517.00
 45.37     468.40
 45.47     520.00
 45.57     547.22
 45.67     515.00
 45.77     489.00
 45.87     516.00
 45.97     531.00
 46.07     517.00
 46.17     510.00
 46.27     499.00
 46.37     534.65
 46.47     484.96
 46.57     550.59
 46.67     495.00
 46.77     493.00
 46.87     516.00
 46.97     473.00
 47.07     520.45
 47.17     496.00
 47.27     478.54
 47.37     541.00
 47.47     548.08
 47.57     525.24
 47.67     573.00
 47.77     577.00
 47.87     576.00
 47.97     605.00
 48.07     580.00
 48.17     560.00
 48.27     526.23
 48.37     526.00
 48.47     555.00
 48.57     519.82
 48.67     506.00
 48.77     564.00
 48.87     531.00
 48.97     553.00
 49.07     592.73
 49.17     572.57
 49.27     645.89
 49.37     651.00
 49.47     734.74
 49.57     800.92
 49.67     937.55
 49.77    1147.71
 49.87    1377.94
 49.97    1852.00
 50.07    2279.00
 50.17    2502.00
 50.27    2485.00
 50.37    2294.00
 50.47    1884.00
 50.57    1406.26
 50.67    1133.05
 50.77     814.00
 50.87     714.00
 50.97     698.00
 51.07     665.69
 51.17     640.00
 51.27     610.00
 51.37     613.00
 51.47     633.00
 51.57     539.95
 51.67     553.00
 51.77     581.00
 51.87     543.00
 51.97     534.00
 52.07     510.04
 52.17     556.62
 52.27     520.69
 52.37     554.22
 52.47     509.64
 52.57     579.49
 52.67     547.41
 52.77     547.71
 52.87     619.47
 52.97     743.00
 53.07     855.00
 53.17     941.00
 53.27     986.13
 53.37    1173.00
 53.47    1188.80
 53.57    1258.61
 53.67    1087.00
 53.77     959.99
 53.87     830.27
 53.97     746.00
 54.07     722.86
 54.17     647.00
 54.27     551.88
 54.37     599.07
 54.47     538.68
 54.57     571.10
 54.67     555.00
 54.77     543.00
 54.87     527.00
 54.97     507.57
 55.07     530.98
 55.17     559.00
 55.27     592.00
 55.37     536.76
 55.47     576.00
 55.57     562.00
 55.67     616.00
 55.77     593.16
 55.87     597.00
 55.97     632.01
 56.07     635.90
 56.17     771.00
 56.27     845.00
 56.37    1121.00
 56.47    1397.00
 56.57    1802.52
 56.67    2229.18
 56.77    2427.51
 56.87    2504.00
 56.97    2563.91
 57.07    2430.72
 57.17    1974.02
 57.27    1707.00
 57.37    1316.00
 57.47    1043.00
 57.57     847.00
 57.67     757.84
 57.77     741.95
 57.87     686.00
 57.97     676.00
 58.07     658.14
 58.17     719.00
 58.27     823.00
 58.37     833.95
 58.47    1017.76
 58.57    1081.00
 58.67    1204.00
 58.77    1355.00
 58.87    1488.78
 58.97    1538.00
 59.07    1599.00
 59.17    1533.00
 59.27    1435.56
 59.37    1378.49
 59.47    1212.41
 59.57    1166.00
 59.67    1169.00
 59.77    1151.10
 59.87    1181.40
 59.97    1237.14
 60.07    1477.00
 60.17    1517.00
 60.27    1557.00
 60.37    1464.00
 60.47    1384.00
 60.57    1232.00
 60.67    1091.00
 60.77     895.00
 60.87     806.00
 60.97     745.79
 61.07     622.00
 61.17     604.48
 61.27     666.00
 61.37     675.00
 61.47     688.00
 61.57     725.00
 61.67     814.00
 61.77     975.93
 61.87    1088.00
 61.97    1234.00
 62.07    1391.17
 62.17    1384.36
 62.27    1399.00
 62.37    1335.00
 62.47    1206.67
 62.57    1071.00
 62.67     891.47
 62.77     847.25
 62.87     663.00
 62.97     656.00
 63.07     625.00
 63.17     622.00
 63.27     554.43
 63.37     566.18
 63.47     557.00
 63.57     545.60
 63.67     553.00
 63.77     634.00
 63.87     640.55
 63.97     680.66
 64.07     708.00
 64.17     767.00
 64.27     784.70
 64.37     955.00
 64.47    1010.00
 64.57     946.28
 64.67    1016.47
 64.77     950.40
 64.87     967.16
 64.97     935.00
 65.07     815.91
 65.17     812.00
 65.27     686.45
 65.37     665.00
 65.47     625.00
 65.57     637.00
 65.67     611.00
 65.77     567.52
 65.87     576.00
 65.97     600.83
 66.07     597.87
 66.17     578.59
 66.27     527.00
 66.37     563.00
 66.47     553.23
 66.57     584.00
 66.67     566.29
 66.77     538.09
 66.87     558.00
 66.97     587.00
 67.07     607.00
 67.17     667.00
 67.27     764.00
 67.37     903.00
 67.47    1111.46
 67.57    1280.97
 67.67    1468.00
 67.77    1864.83
 67.87    2060.00
 67.97    2268.00
 68.07    2331.79
 68.17    2389.99
 68.27    2338.00
 68.37    2046.00
 68.47    1799.00
 68.57    1510.00
 68.67    1383.00
 68.77    1014.00
 68.87     942.40
 68.97     725.68
 69.07     644.50
 69.17     661.00
 69.27     584.03
 69.37     617.00
 69.47     613.54
 69.57     644.00
 69.67     603.57
 69.77     561.25
 69.87     580.00
 69.97     559.00
 70.07     562.00
 70.17     582.00
 70.27     613.00
 70.37     527.00
 70.47     601.00
 70.57     562.00
 70.67     552.00
 70.77     564.00
 70.87     585.00
 70.97     649.52
 71.07     614.00
 71.17     759.00
 71.27     820.76
 71.37     883.00
 71.47    1129.00
 71.57    1288.04
 71.67    1409.29
 71.77    1591.00
 71.87    1692.00
 71.97    1890.00
 72.07    1960.00
 72.17    1934.00
 72.27    1764.25
 72.37    1650.32
 72.47    1540.00
 72.57    1263.84
 72.67    1200.76
 72.77    1035.06
 72.87     946.63
 72.97     919.37
 73.07     765.00
 73.17     732.00
 73.27     677.00
 73.37     659.00
 73.47     642.34
 73.57     619.01
 73.67     600.00
 73.77     615.00
 73.87     586.00
 73.97     557.00
 74.07     613.90
 74.17     591.00
 74.27     586.00
 74.37     636.00
 74.47     632.00
 74.57     598.57
 74.67     658.00
 74.77     521.71
 74.87     629.00
 74.97     517.55
 75.07     611.00
 75.17     513.40
 75.27     545.00
 75.37     568.00
 75.47     558.00
 75.57     586.00
 75.67     578.00
 75.77     603.00
 75.87     552.27
 75.97     572.00
 76.07     616.00
 76.17     679.85
 76.27     649.00
 76.37     689.00
 76.47     653.52
 76.57     721.00
 76.67     710.00
 76.77     633.00
 76.87     622.95
 76.97     671.00
 77.07     656.25
 77.17     576.00
 77.27     574.00
 77.37     544.00
 77.47     518.78
 77.57     554.00
 77.67     518.17
 77.77     578.24
 77.87     521.00
 77.97     576.00
 78.07     521.00
 78.17     491.88
 78.27     503.00
 78.37     545.65
 78.47     513.00
 78.57     524.00
 78.67     529.55
 78.77     535.00
 78.87     534.38
 78.97     522.23
 79.07     496.00
 79.17     524.00
 79.27     518.06
 79.37     506.00
 79.47     571.10
 79.57     545.00
 79.67     570.55
 79.77     505.00
 79.87     538.00
 79.97     541.00
 80.07     539.00
 80.17     578.07
 80.27     534.32
 80.37     572.40
 80.47     574.91
 80.57     584.84
 80.67     620.67
 80.77     621.00
 80.87     695.00
 80.97     621.00
 81.07     671.76
 81.17     718.00
 81.27     746.00
 81.37     751.00
 81.47     768.00
 81.57     738.30
 81.67     762.00
 81.77     708.04
 81.87     707.00
 81.97     756.00
 82.07     623.00
 82.17     686.71
 82.27     624.66
 82.37     615.00
 82.47     590.99
 82.57     603.00
 82.67     584.00
 82.77     565.00
 82.87     536.49
 82.97     590.63
 83.07     516.39
 83.17     573.00
 83.27     589.93
 83.37     524.00
 83.47     565.00
 83.57     546.00
 83.67     574.00
 83.77     534.58
 83.87     583.00
 83.97     624.83
 84.07     602.33
 84.17     576.27
 84.27     575.00
 84.37     598.15
 84.47     564.00
 84.57     516.00
 84.67     577.00
 84.77     555.09
 84.87     523.00
 84.97     502.00
 85.07     555.00
 85.17     526.00
 85.27     548.00
 85.37     518.00
 85.47     529.00
 85.57     499.52
 85.67     526.00
 85.77     540.00
 85.87     502.00
 85.97     537.56
 86.07     525.65
 86.17     547.00
 86.27     528.00
 86.37     576.31
 86.47     528.77
 86.57     517.65
 86.67     567.00
 86.77     610.00
 86.87     633.00
 86.97     593.88
 87.07     569.88
 87.17     651.00
 87.27     627.00
 87.37     647.46
 87.47     619.79
 87.57     676.00
 87.67     639.00
 87.77     613.00
 87.87     615.48
 87.97     643.99
 88.07     582.00
 88.17     567.43
 88.27     564.00
 88.37     596.16
 88.47     575.00
 88.57     548.92
 88.67     601.71
 88.77     612.11
 88.87     550.61
 88.97     585.00
 89.07     645.00
 89.17     622.44
 89.27     656.00
 89.37     580.00
 89.47     615.00
 89.57     596.00
 89.67     637.00
 89.77     557.00
 89.87     546.00
 89.97     577.00
 90.07     529.00
 90.17     565.60
 90.27     570.59
 90.37     578.05
 90.47     554.00
 90.57     527.00
 90.67     517.00
 90.77     490.88
 90.87     520.00
 90.97     502.00
 91.07     513.61
 91.17     492.00
 91.27     509.78
 91.37     504.00
 91.47     565.60
 91.57     513.00
 91.67     549.00
 91.77     532.00
 91.87     521.00
 91.97     529.00
 92.07     541.00
 92.17     578.00
 92.27     565.73
 92.37     621.00
 92.47     620.00
 92.57     687.47
 92.67     607.00
 92.77     662.00
 92.87     672.09
 92.97     740.00
 93.07     754.00
 93.17     777.00
 93.27     764.16
 93.37     777.09
 93.47     784.38
 93.57     849.00
 93.67     872.00
 93.77     819.00
 93.87     851.00
 93.97     847.20
 94.07     909.00
 94.17     835.00
 94.27     874.00
 94.37     870.00
 94.47     859.00
 94.57     926.00
 94.67     991.00
 94.77     900.00
 94.87     909.64
 94.97     928.00
 95.07     870.00
 95.17     869.15
 95.27     869.00
 95.37     840.00
 95.47     819.12
 95.57     710.00
 95.67     792.00
 95.77     709.89
 95.87     732.24
 95.97     690.00
 96.07     670.25
 96.17     702.59
 96.27     726.00
 96.37     739.00
 96.47     808.00
 96.57     827.00
 96.67     930.78
 96.77    1018.20
 96.87    1111.13
 96.97    1110.00
 97.07    1220.00
 97.17    1316.12
 97.27    1369.00
 97.37    1391.90
 97.47    1451.00
 97.57    1431.00
 97.67    1437.94
 97.77    1455.00
 97.87    1310.23
 97.97    1334.25
 98.07    1268.68
 98.17    1189.16
 98.27    1090.00
 98.37     986.00
 98.47     992.00
 98.57     850.69
 98.67     824.13
 98.77     832.00
 98.87     760.00
 98.97     864.00
 99.07     816.00
 99.17     813.00
 99.27     908.00
 99.37     886.10
 99.47     952.00
 99.57    1036.46
 99.67    1174.89
 99.77    1353.86
 99.87    1479.00
 99.97    1479.00
100.07    1550.30
100.17    1769.00
100.27    1754.49
100.37    1883.00
100.47    1957.68
100.57    2051.00
100.67    2024.00
100.77    2166.00
100.87    2144.00
100.97    2085.91
101.07    2030.00
101.17    1905.00
101.27    1779.38
101.37    1728.00
101.47    1612.00
101.57    1513.11
101.67    1458.18
101.77    1448.00
101.87    1269.00
101.97    1169.00
102.07    1167.45
102.17    1183.00
102.27    1128.57
102.37    1088.00
102.47    1134.29
102.57    1112.00
102.67    1068.00
102.77    1008.15
102.87    1009.00
102.97     932.81
103.07     873.66
103.17     897.00
103.27     870.00
103.37     786.02
103.47     784.00
103.57     708.00
103.67     709.00
103.77     640.00
103.87     687.00
103.97     648.00
104.07     637.00
104.17     576.00
104.27     574.00
104.37     569.00
104.47     580.00
104.57     564.00
104.67     563.00
104.77     501.33
104.87     550.00
104.97     574.00
105.07     529.00
105.17     525.00
105.27     533.00
105.37     515.00
105.47     512.28
105.57     543.00
105.67     545.30
105.77     572.00
105.87     505.00
105.97     567.00
106.07     609.00
106.17     585.00
106.27     595.00
106.37     591.00
106.47     573.23
106.57     608.20
106.67     619.00
106.77     620.00
106.87     680.14
106.97     629.95
107.07     634.00
107.17     701.15
107.27     725.11
107.37     683.00
107.47     727.77
107.57     658.00
107.67     683.00
107.77     662.00
107.87     696.00
107.97     713.37
108.07     660.57
108.17     708.00
108.27     728.79
108.37     715.68
108.47     699.00
108.57     669.00
108.67     686.00
108.77     682.00
108.87     690.00
108.97     689.00
109.07     701.00
109.17     688.00
109.27     668.00
109.37     617.00
109.47     670.00
109.57     641.00
109.67     635.00
109.77     616.00
109.87     616.00
109.97     602.00
110.07     563.52
110.17     621.00
110.27     568.83
110.37     633.00
110.47     518.00
110.57     551.40
110.67     577.00
110.77     495.46
110.87     579.18
110.97     556.00
111.07     530.77
111.17     563.16
111.27     518.00
111.37     507.00
111.47     513.49
111.57     567.72
111.67     591.32
111.77     557.00
111.87     503.00
111.97     512.98
112.07     535.00
112.17     577.00
112.27     580.00
112.37     616.00
112.47     559.01
112.57     591.00
112.67     580.21
112.77     668.76
112.87     635.00
112.97     661.00
113.07     687.00
113.17     685.00
113.27     684.45
113.37     776.00
113.47     762.13
113.57     847.53
113.67     845.00
113.77     911.00
113.87     878.00
113.97     932.75
114.07    1066.58
114.17    1044.00
114.27    1153.00
114.37    1246.00
114.47    1364.78
114.57    1457.00
114.67    1508.29
114.77    1791.00
114.87    1818.00
114.97    2063.00
115.07    2334.61
115.17    2554.51
115.27    2871.81
115.37    3015.00
115.47    3358.00
115.57    3658.00
115.67    4112.31
115.77    4375.00
115.87    4913.26
115.97    5051.00
116.07    5732.35
116.17    6036.16
116.27    6264.00
116.37    6496.99
116.47    6764.00
116.57    6818.00
116.67    6933.00
116.77    6875.41
116.87    6838.00
116.97    6576.99
117.07    6318.92
117.17    6186.00
117.27    5841.39
117.37    5344.56
117.47    4960.81
117.57    4694.00
117.67    4262.00
117.77    3999.00
117.87    3633.00
117.97    3183.12
118.07    2944.00
118.17    2448.48
118.27    2307.00
118.37    2021.00
118.47    1818.40
118.57    1578.00
118.67    1349.84
118.77    1328.28
118.87    1206.59
118.97     996.75
119.07     983.00
119.17     844.00
119.27     800.00
119.37     786.00
119.47     694.28
119.57     687.00
119.67     685.00
119.77     662.00
119.87     630.00
119.97     575.00
120.07     595.05
120.17     604.13
120.27     611.15
120.37     622.65
120.47     597.66
120.57     536.84
120.67     583.00
120.77     554.00
120.87     522.00
120.97     534.00
121.07     627.00
121.17     540.59
121.27     548.84
121.37     573.00
121.47     567.00
121.57     562.54
121.67     601.00
121.77     582.00
121.87     582.00
121.97     555.22
122.07     606.00
122.17     654.77
122.27     624.67
122.37     596.00
122.47     641.00
122.57     652.12
122.67     666.00
122.77     594.00
122.87     635.00
122.97     667.00
123.07     614.94
123.17     681.00
123.27     678.00
123.37     609.96
123.47     631.00
123.57     650.38
123.67     635.00
123.77     589.41
123.87     659.00
123.97     641.90
124.07     599.00
124.17     561.75
124.27     641.00
124.37     597.00
124.47     584.27
124.57     601.00
124.67     562.48
124.77     622.94
124.87     580.00
124.97     545.00
