  9.97     525.00
 10.07     628.00
 10.17     615.00
 10.27     579.00
 10.37     624.00
 10.47     571.00
 10.57     550.90
 10.67     558.00
 10.77     592.00
 10.87     604.15
 10.97     568.00
 11.07     573.00
 11.17     625.00
 11.27     615.00
 11.37     563.96
 11.47     640.00
 11.57     605.00
 11.67     575.76
 11.77     595.01
 11.87     620.00
 11.97     591.73
 12.07     644.00
 12.17     692.00
 12.27     695.10
 12.37     663.00
 12.47     621.96
 12.57     605.00
 12.67     642.23
 12.77     580.00
 12.87     574.63
 12.97     581.35
 13.07     552.00
 13.17     545.00
 13.27     593.00
 13.37     558.25
 13.47     560.00
 13.57     589.02
 13.67     597.00
 13.77     591.88
 13.87     582.00
 13.97     554.00
 14.07     538.00
 14.17     577.00
 14.27     534.00
 14.37     604.91
 14.47     570.00
 14.57     585.00
 14.67     590.00
 14.77     552.00
 14.87     546.00
 14.97     515.00
 15.07     547.00
 15.17     550.61
 15.27     551.28
 15.37     559.92
 15.47     600.00
 15.57     531.00
 15.67     614.15
 15.77     562.90
 15.87     531.59
 15.97     552.23
 16.07     535.89
 16.17     590.45
 16.27     542.00
 16.37     597.21
 16.47     559.00
 16.57     542.00
 16.67     521.00
 16.77     613.41
 16.87     562.05
 16.97     569.00
 17.07     566.00
 17.17     536.00
 17.27     529.00
 17.37     562.47
 17.47     586.00
 17.57     593.65
 17.67     574.00
 17.77     581.00
 17.87     590.00
 17.97     534.85
 18.07     593.32
 18.17     541.00
 18.27     579.79
 18.37     570.76
 18.47     577.00
 18.57     555.00
 18.67     539.00
 18.77     525.55
 18.87     566.00
 18.97     580.00
 19.07     531.00
 19.17     589.00
 19.27     562.00
 19.37     575.44
 19.47     590.00
 19.57     574.72
 19.67     547.00
 19.77     506.00
 19.87     526.00
 19.97     557.00
 20.07     551.01
 20.17     551.00
 20.27     556.00
 20.37     528.47
 20.47     580.00
 20.57     551.00
 20.67     551.07
 20.77     562.00
 20.87     597.22
 20.97     523.00
 21.07     544.00
 21.17     526.00
 21.27     520.13
 21.37     556.00
 21.47     595.44
 21.57     560.00
 21.67     561.00
 21.77     557.00
 21.87     624.00
 21.97     542.00
 22.07     586.00
 22.17     573.80
 22.27     576.00
 22.37     563.23
 22.47     593.34
 22.57     547.00
 22.67     552.00
 22.77     498.00
 22.87     561.00
 22.97     545.00
 23.07     533.17
 23.17     550.75
 23.27     525.66
 23.37     557.00
 23.47     573.00
 23.57     573.92
 23.67     569.00
 23.77     564.00
 23.87     527.69
 23.97     541.00
 24.07     588.00
 24.17     580.00
 24.27     603.00
 24.37     576.54
 24.47     623.15
 24.57     635.00
 24.67     562.00
 24.77     636.00
 24.87     606.51
 24.97     622.82
 25.07     598.62
 25.17     580.00
 25.27     583.57
 25.37     575.10
 25.47     572.88
 25.57     607.00
 25.67     574.00
 25.77     608.00
 25.87     572.00
 25.97     560.00
 26.07     505.94
 26.17     521.00
 26.27     545.00
 26.37     532.00
 26.47     530.00
 26.57     559.00
 26.67     582.80
 26.77     538.26
 26.87     554.00
 26.97     570.00
 27.07     554.00
 27.17     547.00
 27.27     544.00
 27.37     528.73
 27.47     542.00
 27.57     574.56
 27.67     523.00
 27.77     554.55
 27.87     631.24
 27.97     708.54
 28.07     767.00
 28.17     889.00
 28.27     945.00
 28.37     912.29
 28.47     826.00
 28.57     701.39
 28.67     723.00
 28.77     681.00
 28.87     790.00
 28.97     820.12
 29.07     828.86
 29.17     719.00
 29.27     645.00
 29.37     617.00
 29.47     577.00
 29.57     603.00
 29.67     580.82
 29.77     601.00
 29.87     542.33
 29.97     617.00
 30.07     598.00
 30.17     564.00
 30.27     579.20
 30.37     497.04
 30.47     562.00
 30.57     556.00
 30.67     553.00
 30.77     631.68
 30.87     636.00
 30.97     624.00
 31.07     628.00
 31.17     599.00
 31.27     568.85
 31.37     545.33
 31.47     536.00
 31.57     504.00
 31.67     543.12
 31.77     575.00
 31.87     558.00
 31.97     536.25
 32.07     530.00
 32.17     530.00
 32.27     513.00
 32.37     532.00
 32.47     565.00
 32.57     494.42
 32.67     521.18
 32.77     535.00
 32.87     515.00
 32.97     517.00
 33.07     515.00
 33.17     500.00
 33.27     542.31
 33.37     507.00
 33.47     596.00
 33.57     626.00
 33.67     625.00
 33.77     701.68
 33.87     891.00
 33.97     993.00
 34.07    1068.00
 34.17     966.36
 34.27     926.00
 34.37     771.00
 34.47     609.64
 34.57     617.39
 34.67     574.00
 34.77     546.38
 34.87     552.00
 34.97     529.00
 35.07     580.00
 35.17     507.00
 35.27     533.00
 35.37     489.00
 35.47     553.00
 35.57     499.52
 35.67     509.00
 35.77     504.00
 35.87     544.38
 35.97     523.00
 36.07     550.38
 36.17     517.00
 36.27     507.33
 36.37     510.00
 36.47     506.00
 36.57     538.00
 36.67     521.00
 36.77     515.00
 36.87     506.00
 36.97     484.76
 37.07     539.00
 37.17     548.85
 37.27     504.87
 37.37     573.00
 37.47     494.00
 37.57     536.00
 37.67     530.00
 37.77     484.00
 37.87     501.40
 37.97     554.29
 38.07     530.00
 38.17     507.00
 38.27     498.00
 38.37     484.00
 38.47     510.00
 38.57     547.73
 38.67     483.00
 38.77     499.76
 38.87     520.00
 38.97     534.35
 39.07     464.74
 39.17     475.28
 39.27     508.00
 39.37     512.00
 39.47     514.00
 39.57     508.00
 39.67     499.97
 39.77     518.00
 39.87     532.00
 39.97     527.07
 40.07     528.01
 40.17     536.29
 40.27     488.00
 40.37     508.00
 40.47     449.00
 40.57     487.00
 40.67     520.00
 40.77     526.00
 40.87     488.00
 40.97     537.00
 41.07     478.00
 41.17     546.57
 41.27     498.00
 41.37     516.00
 41.47     485.78
 41.57     522.00
 41.67     481.00
 41.77     548.00
 41.87     529.09
 41.97     541.49
 42.07     481.50
 42.17     560.64
 42.27     485.00
 42.37     604.24
 42.47     576.00
 42.57     606.40
 42.67     529.00
 42.77     567.00
 42.87     596.91
 42.97     589.64
 43.07     573.96
 43.17     540.00
 43.27     498.91
 43.37     519.00
 43.47     496.00
 43.57     471.33
 43.67     499.00
 43.77     548.39
 43.87     502.00
 43.97     492.00
 44.07     510.00
 44.17     490.00
 44.27     462.00
 44.37     467.44
 44.47     514.00
 44.57     511.78
 44.67     496.00
 44.77     516.00
 44.87     494.00
 44.97     491.05
 45.07     490.65
 45.17     471.38
 45.27     532.30
 45.37     484.00
 45.47     528.48
 45.57     473.01
 45.67     547.75
 45.77     532.00
 45.87     461.56
 45.97     498.65
 46.07     497.27
 46.17     522.00
 46.27     560.00
 46.37     550.00
 46.47     555.00
 46.57     488.34
 46.67     500.00
 46.77     526.45
 46.87     516.00
 46.97     549.00
 47.07     497.00
 47.17     516.00
 47.27     553.81
 47.37     509.83
 47.47     531.00
 47.57     526.45
 47.67     529.98
 47.77     565.00
 47.87     639.36
 47.97     630.00
 48.07     591.00
 48.17     560.00
 48.27     557.00
 48.37     561.00
 48.47     519.00
 48.57     529.00
 48.67     538.00
 48.77     543.00
 48.87     549.00
 48.97     526.84
 49.07     565.00
 49.17     580.00
 49.27     636.00
 49.37     651.00
 49.47     665.00
 49.57     753.79
 49.67     954.00
 49.77    1108.00
 49.87    1484.00
 49.97    1841.00
 50.07    2222.00
 50.17    2527.00
 50.27    2562.60
 50.37    2319.00
 50.47    1948.00
 50.57    1460.00
 50.67    1018.00
 50.77     825.02
 50.87     706.00
 50.97     664.55
 51.07     636.33
 51.17     581.00
 51.27     601.00
 51.37     574.00
 51.47     589.00
 51.57     611.00
 51.67     557.47
 51.77     538.00
 51.87     525.00
 51.97     560.25
 52.07     514.94
 52.17     588.00
 52.27     552.93
 52.37     518.62
 52.47     566.96
 52.57     568.58
 52.67     577.00
 52.77     555.76
 52.87     606.00
 52.97     681.00
 53.07     802.84
 53.17     941.00
 53.27    1017.00
 53.37    1124.00
 53.47    1174.00
 53.57    1199.00
 53.67    1073.71
 53.77     980.38
 53.87     860.00
 53.97     733.00
 54.07     693.00
 54.17     576.65
 54.27     614.00
 54.37     556.73
 54.47     636.00
 54.57     566.00
 54.67     564.84
 54.77     510.24
 54.87     589.06
 54.97     557.00
 55.07     577.00
 55.17     585.00
 55.27     590.00
 55.37     585.62
 55.47     582.00
 55.57     557.00
 55.67     576.19
 55.77     569.03
 55.87     611.00
 55.97     635.13
 56.07     641.00
 56.17     739.85
 56.27     924.09
 56.37    1175.35
 56.47    1362.00
 56.57    1788.00
 56.67    2235.92
 56.77    2430.09
 56.87    2654.00
 56.97    2558.76
 57.07    2294.01
 57.17    2055.61
 57.27    1636.00
 57.37    1299.00
 57.47     989.72
 57.57     956.00
 57.67     794.00
 57.77     770.00
 57.87     697.00
 57.97     690.00
 58.07     718.00
 58.17     701.00
 58.27     747.00
 58.37     821.00
 58.47     948.96
 58.57    1100.26
 58.67    1164.00
 58.77    1357.00
 58.87    1469.00
 58.97    1439.07
 59.07    1592.00
 59.17    1492.98
 59.27    1479.19
 59.37    1404.00
 59.47    1316.00
 59.57    1138.12
 59.67    1177.00
 59.77    1202.00
 59.87    1296.00
 59.97    1239.70
 60.07    1473.00
 60.17    1556.49
 60.27    1558.00
 60.37    1512.00
 60.47    1495.00
 60.57    1251.96
 60.67    1094.87
 60.77     929.00
 60.87     738.00
 60.97     709.00
 61.07     682.00
 61.17     667.00
 61.27     667.00
 61.37     600.76
 61.47     668.33
 61.57     758.42
 61.67     859.00
 61.77    1012.00
 61.87    1122.00
 61.97    1234.00
 62.07    1435.95
 62.17    1476.02
 62.27    1371.00
 62.37    1281.35
 62.47    1178.00
 62.57    1036.00
 62.67     879.00
 62.77     845.75
 62.87     666.88
 62.97     595.56
 63.07     541.00
 63.17     584.83
 63.27     578.00
 63.37     555.79
 63.47     517.96
 63.57     542.70
 63.67     588.00
 63.77     616.00
 63.87     630.00
 63.97     629.60
 64.07     714.00
 64.17     758.00
 64.27     880.00
 64.37     921.63
 64.47     956.00
 64.57    1084.00
 64.67    1032.00
 64.77    1051.00
 64.87     964.24
 64.97     953.00
 65.07     880.30
 65.17     736.39
 65.27     727.07
 65.37     718.00
 65.47     664.00
 65.57     644.00
 65.67     642.40
 65.77     600.01
 65.87     592.00
 65.97     547.00
 66.07     562.61
 66.17     551.00
 66.27     534.00
 66.37     542.00
 66.47     593.00
 66.57     558.00
 66.67     558.00
 66.77     603.63
 66.87     583.00
 66.97     592.00
 67.07     622.00
 67.17     668.00
 67.27     777.94
 67.37     932.33
 67.47    1092.95
 67.57    1325.38
 67.67    1513.00
 67.77    1868.27
 67.87    2104.00
 67.97    2372.67
 68.07    2441.00
 68.17    2342.59
 68.27    2242.57
 68.37    2083.00
 68.47    1823.00
 68.57    1553.00
 68.67    1342.00
 68.77    1070.00
 68.87     899.02
 68.97     790.00
 69.07     712.57
 69.17     658.25
 69.27     625.00
 69.37     626.17
 69.47     587.81
 69.57     578.00
 69.67     590.75
 69.77     570.00
 69.87     588.64
 69.97     531.00
 70.07     563.00
 70.17     609.11
 70.27     606.00
 70.37     582.00
 70.47     559.02
 70.57     528.00
 70.67     595.00
 70.77     555.00
 70.87     638.18
 70.97     643.00
 71.07     647.00
 71.17     728.22
 71.27     885.00
 71.37     960.00
 71.47    1030.00
 71.57    1240.00
 71.67    1413.00
 71.77    1607.00
 71.87    1810.00
 71.97    1812.73
 72.07    1964.85
 72.17    1897.65
 72.27    1823.00
 72.37    1702.00
 72.47    1488.99
 72.57    1278.00
 72.67    1177.00
 72.77    1018.00
 72.87     878.00
 72.97     863.37
 73.07     859.40
 73.17     831.74
 73.27     691.00
 73.37     694.69
 73.47     723.36
 73.57     625.00
 73.67     626.00
 73.77     561.49
 73.87     564.00
 73.97     585.00
 74.07     604.00
 74.17     588.13
 74.27     602.00
 74.37     614.00
 74.47     632.00
 74.57     679.00
 74.67     678.00
 74.77     608.00
 74.87     610.00
 74.97     587.33
 75.07     623.00
 75.17     537.86
 75.27     570.00
 75.37     504.76
 75.47     546.45
 75.57     544.08
 75.67     551.00
 75.77     599.00
 75.87     625.37
 75.97     631.00
 76.07     621.00
 76.17     624.00
 76.27     670.00
 76.37     677.32
 76.47     676.00
 76.57     705.00
 76.67     727.55
 76.77     726.00
 76.87     717.16
 76.97     614.00
 77.07     621.03
 77.17     560.33
 77.27     528.00
 77.37     542.00
 77.47     580.16
 77.57     562.00
 77.67     517.08
 77.77     513.04
 77.87     534.48
 77.97     525.00
 78.07     526.20
 78.17     506.88
 78.27     529.00
 78.37     520.78
 78.47     543.00
 78.57     530.44
 78.67     550.09
 78.77     527.00
 78.87     506.00
 78.97     502.00
 79.07     471.00
 79.17     515.76
 79.27     511.25
 79.37     532.88
 79.47     510.00
 79.57     554.00
 79.67     581.00
 79.77     537.01
 79.87     528.00
 79.97     558.69
 80.07     566.28
 80.17     530.55
 80.27     573.00
 80.37     578.00
 80.47     549.00
 80.57     567.00
 80.67     615.00
 80.77     658.00
 80.87     678.00
 80.97     638.00
 81.07     732.62
 81.17     730.00
 81.27     754.90
 81.37     711.81
 81.47     768.00
 81.57     773.00
 81.67     723.00
 81.77     747.00
 81.87     729.88
 81.97     668.02
 82.07     707.00
 82.17     648.00
 82.27     649.00
 82.37     655.00
 82.47     577.65
 82.57     610.21
 82.67     585.00
 82.77     540.06
 82.87     569.00
 82.97     541.00
 83.07     583.22
 83.17     586.48
 83.27     511.00
 83.37     533.00
 83.47     566.72
 83.57     507.00
 83.67     537.29
 83.77     596.00
 83.87     572.00
 83.97     619.40
 84.07     594.99
 84.17     565.00
 84.27     606.00
 84.37     549.00
 84.47     589.00
 84.57     577.85
 84.67     518.45
 84.77     565.00
 84.87     526.00
 84.97     542.00
 85.07     488.33
 85.17     551.00
 85.27     527.00
 85.37     567.58
 85.47     546.00
 85.57     527.42
 85.67     567.33
 85.77     510.00
 85.87     513.00
 85.97     548.00
 86.07     525.74
 86.17     519.00
 86.27     522.00
 86.37     503.43
 86.47     531.00
 86.57     596.00
 86.67     578.00
 86.77     576.16
 86.87     599.00
 86.97     562.52
 87.07     579.00
 87.17     616.00
 87.27     647.00
 87.37     630.00
 87.47     635.00
 87.57     618.82
 87.67     640.00
 87.77     682.00
 87.87     646.00
 87.97     564.75
 88.07     606.00
 88.17     596.00
 88.27     601.00
 88.37     617.00
 88.47     629.00
 88.57     570.00
 88.67     615.31
 88.77     583.00
 88.87     594.00
 88.97     608.26
 89.07     574.00
 89.17     645.34
 89.27     569.74
 89.37     615.00
 89.47     571.00
 89.57     592.00
 89.67     556.61
 89.77     575.00
 89.87     598.00
 89.97     614.00
 90.07     588.00
 90.17     553.00
 90.27     550.11
 90.37     586.45
 90.47     528.35
 90.57     553.15
 90.67     531.52
 90.77     558.92
 90.87     542.03
 90.97     497.85
 91.07     539.13
 91.17     563.00
 91.27     536.23
 91.37     502.00
 91.47     570.15
 91.57     516.00
 91.67     548.00
 91.77     516.99
 91.87     551.00
 91.97     585.00
 92.07     538.00
 92.17     579.00
 92.27     544.00
 92.37     597.00
 92.47     637.00
 92.57     636.00
 92.67     651.00
 92.77     695.54
 92.87     747.00
 92.97     722.81
 93.07     738.63
 93.17     709.68
 93.27     722.00
 93.37     785.00
 93.47     836.00
 93.57     866.00
 93.67     838.00
 93.77     845.00
 93.87     788.00
 93.97     881.00
 94.07     830.00
 94.17     887.32
 94.27     898.00
 94.37     834.00
 94.47     865.00
 94.57     890.72
 94.67     869.97
 94.77     940.00
 94.87     883.52
 94.97     872.23
 95.07     865.00
 95.17     915.00
 95.27     773.72
 95.37     813.00
 95.47     758.91
 95.57     773.24
 95.67     696.86
 95.77     699.00
 95.87     711.00
 95.97     670.00
 96.07     649.23
 96.17     661.27
 96.27     688.11
 96.37     770.78
 96.47     842.93
 96.57     886.15
 96.67     936.00
 96.77    1003.41
 96.87    1054.00
 96.97    1176.55
 97.07    1197.08
 97.17    1280.52
 97.27    1384.00
 97.37    1343.00
 97.47    1374.00
 97.57    1431.00
 97.67    1387.80
 97.77    1386.00
 97.87    1390.97
 97.97    1256.00
 98.07    1235.00
 98.17    1143.68
 98.27    1079.00
 98.37    1069.06
 98.47     996.00
 98.57     903.00
 98.67     816.00
 98.77     769.00
 98.87     805.00
 98.97     771.00
 99.07     836.00
 99.17     905.00
 99.27     908.00
 99.37     881.00
 99.47    1025.00
 99.57    1094.00
 99.67    1170.00
 99.77    1280.00
 99.87    1380.00
 99.97    1548.00
100.07    1541.00
100.17    1719.00
100.27    1854.00
100.37    1964.00
100.47    2065.27
100.57    2047.00
100.67    2143.00
100.77    2052.00
100.87    2008.00
100.97    2070.00
101.07    2018.00
101.17    1954.68
101.27    1837.00
101.37    1702.00
101.47    1666.00
101.57    1497.45
101.67    1448.00
101.77    1353.63
101.87    1290.00
101.97    1319.57
102.07    1235.00
102.17    1197.59
102.27    1089.00
102.37    1097.47
102.47    1125.00
102.57    1078.00
102.67    1119.00
102.77    1027.00
102.87    1027.71
102.97     945.11
103.07     877.13
103.17     904.61
103.27     870.00
103.37     849.68
103.47     752.30
103.57     725.00
103.67     731.32
103.77     648.78
103.87     623.97
103.97     655.00
104.07     582.70
104.17     630.00
104.27     580.00
104.37     568.00
104.47     576.00
104.57     561.00
104.67     516.00
104.77     552.00
104.87     545.31
104.97     561.75
105.07     521.00
105.17     560.78
105.27     548.00
105.37     578.87
105.47     558.00
105.57     556.00
105.67     537.00
105.77     564.48
105.87     556.00
105.97     557.00
106.07     566.00
106.17     545.00
106.27     619.17
106.37     563.38
106.47     610.00
106.57     586.46
106.67     562.00
106.77     651.00
106.87     650.00
106.97     686.00
107.07     615.00
107.17     684.00
107.27     683.03
107.37     663.00
107.47     743.48
107.57     714.00
107.67     692.30
107.77     686.81
107.87     690.00
107.97     671.00
108.07     628.00
108.17     703.00
108.27     691.08
108.37     697.00
108.47     686.00
108.57     672.57
108.67     718.00
108.77     676.00
108.87     650.00
108.97     722.47
109.07     719.00
109.17     695.00
109.27     713.24
109.37     622.00
109.47     641.00
109.57     652.00
109.67     632.00
109.77     656.00
109.87     641.35
109.97     625.00
110.07     605.00
110.17     616.00
110.27     571.00
110.37     584.00
110.47     553.00
110.57     548.67
110.67     532.62
110.77     531.00
110.87     530.00
110.97     556.00
111.07     509.00
111.17     558.02
111.27     493.11
111.37     528.00
111.47     567.00
111.57     515.00
111.67     545.00
111.77     587.00
111.87     514.68
111.97     548.00
112.07     549.00
112.17     587.95
112.27     536.16
112.37     550.00
112.47     575.99
112.57     609.00
112.67     603.00
112.77     622.00
112.87     609.27
112.97     647.87
113.07     698.00
113.17     661.47
113.27     735.27
113.37     792.26
113.47     804.97
113.57     824.00
113.67     860.00
113.77     897.67
113.87     962.41
113.97     993.00
114.07    1019.00
114.17    1074.08
114.27    1134.00
114.37    1211.00
114.47    1300.00
114.57    1415.00
114.67    1534.34
114.77    1734.45
114.87    1899.84
114.97    2102.00
115.07    2285.17
115.17    2583.00
115.27    2898.00
115.37    3060.00
115.47    3471.00
115.57    3713.00
115.67    4186.00
115.77    4558.65
115.87    4816.47
115.97    5215.00
116.07    5564.00
116.17    5930.00
116.27    6274.00
116.37    6629.33
116.47    6845.00
116.57    6946.32
116.67    7187.00
116.77    6933.00
116.87    6730.00
116.97    6697.00
117.07    6374.00
117.17    6144.00
117.27    5732.08
117.37    5381.03
117.47    4916.00
117.57    4558.00
117.67    4234.93
117.77    4101.00
117.87    3563.39
117.97    3243.00
118.07    2882.00
118.17    2550.11
118.27    2222.00
118.37    2020.00
118.47    1772.00
118.57    1636.78
118.67    1398.00
118.77    1255.00
118.87    1117.00
118.97    1098.00
119.07     989.00
119.17     893.00
119.27     813.43
119.37     786.00
119.47     740.00
119.57     708.00
119.67     625.00
119.77     671.11
119.87     631.00
119.97     592.68
120.07     596.00
120.17     586.15
120.27     583.42
120.37     576.87
120.47     636.00
120.57     572.00
120.67     616.98
120.77     533.00
120.87     558.11
120.97     591.06
121.07     566.00
121.17     567.00
121.27     619.39
121.37     596.00
121.47     611.52
121.57     575.00
121.67     525.00
121.77     638.07
121.87     596.00
121.97     628.00
122.07     575.00
122.17     616.00
122.27     579.99
122.37     649.00
122.47     609.75
122.57     675.20
122.67     619.00
122.77     594.57
122.87     608.50
122.97     615.88
123.07     653.00
123.17     637.00
123.27     607.30
123.37     618.00
123.47     590.00
123.57     643.63
123.67     674.27
123.77     618.00
123.87     661.00
123.97     661.00
124.07     622.99
124.17     614.00
124.27     602.00
124.37     611.00
124.47     579.30
124.57     614.00
124.67     586.53
124.77     601.00
124.87     578.00
124.97     603.00
