  9.97     582.00
 10.07     584.00
 10.17     587.29
 10.27     538.46
 10.37     578.27
 10.47     513.00
 10.57     545.00
 10.67     590.00
 10.77     580.00
 10.87     589.02
 10.97     554.80
 11.07     577.00
 11.17     585.62
 11.27     575.00
 11.37     561.97
 11.47     601.00
 11.57     553.00
 11.67     573.00
 11.77     635.00
 11.87     547.57
 11.97     584.70
 12.07     678.00
 12.17     708.00
 12.27     641.00
 12.37     717.03
 12.47     594.62
 12.57     603.00
 12.67     556.80
 12.77     544.00
 12.87     527.00
 12.97     576.43
 13.07     551.00
 13.17     551.21
 13.27     549.00
 13.37     536.70
 13.47     579.00
 13.57     546.00
 13.67     569.00
 13.77     553.00
 13.87     536.00
 13.97     594.00
 14.07     514.00
 14.17     561.74
 14.27     527.74
 14.37     510.00
 14.47     534.81
 14.57     563.49
 14.67     582.15
 14.77     604.08
 14.87     535.00
 14.97     522.00
 15.07     593.00
 15.17     566.00
 15.27     533.48
 15.37     564.00
 15.47     532.00
 15.57     564.76
 15.67     537.91
 15.77     521.18
 15.87     565.00
 15.97     553.00
 16.07     548.57
 16.17     551.00
 16.27     541.00
 16.37     536.92
 16.47     510.50
 16.57     517.14
 16.67     538.00
 16.77     599.00
 16.87     606.00
 16.97     577.00
 17.07     532.43
 17.17     608.00
 17.27     524.39
 17.37     541.00
 17.47     549.00
 17.57     555.00
 17.67     556.00
 17.77     539.60
 17.87     562.00
 17.97     564.00
 18.07     536.00
 18.17     530.00
 18.27     547.00
 18.37     542.85
 18.47     533.00
 18.57     550.00
 18.67     506.00
 18.77     552.00
 18.87     571.00
 18.97     565.00
 19.07     565.00
 19.17     536.56
 19.27     542.00
 19.37     534.00
 19.47     512.00
 19.57     551.00
 19.67     521.00
 19.77     535.00
 19.87     596.76
 19.97     509.86
 20.07     541.00
 20.17     550.00
 20.27     544.00
 20.37     546.33
 20.47     540.00
 20.57     506.00
 20.67     533.07
 20.77     525.33
 20.87     491.00
 20.97     505.00
 21.07     529.59
 21.17     553.00
 21.27     520.00
 21.37     566.00
 21.47     546.00
 21.57     591.00
 21.67     544.00
 21.77     548.00
 21.87     568.75
 21.97     518.50
 22.07     545.00
 22.17     553.00
 22.27     550.25
 22.37     541.00
 22.47     555.36
 22.57     560.00
 22.67     553.00
 22.77     604.00
 22.87     541.00
 22.97     552.00
 23.07     553.00
 23.17     517.00
 23.27     570.00
 23.37     578.00
 23.47     517.99
 23.57     548.00
 23.67     572.00
 23.77     529.00
 23.87     534.00
 23.97     551.00
 24.07     568.89
 24.17     539.00
 24.27     554.00
 24.37     555.00
 24.47     602.86
 24.57     595.00
 24.67     617.00
 24.77     627.00
 24.87     644.14
 24.97     643.38
 25.07     630.88
 25.17     582.00
 25.27     562.00
 25.37     568.00
 25.47     540.00
 25.57     572.00
 25.67     585.00
 25.77     521.18
 25.87     541.00
 25.97     580.00
 26.07     559.00
 26.17     585.07
 26.27     573.00
 26.37     522.00
 26.47     555.00
 26.57     539.00
 26.67     571.00
 26.77     516.00
 26.87     556.24
 26.97     524.00
 27.07     571.15
 27.17     551.00
 27.27     581.18
 27.37     556.00
 27.47     501.61
 27.57     568.47
 27.67     592.00
 27.77     588.00
 27.87     581.00
 27.97     695.00
 28.07     688.06
 28.17     890.00
 28.27     900.00
 28.37     899.00
 28.47     832.29
 28.57     762.00
 28.67     770.00
 28.77     729.00
 28.87     785.76
 28.97     761.00
 29.07     804.00
 29.17     769.96
 29.27     661.00
 29.37     608.00
 29.47     599.00
 29.57     568.00
 29.67     582.00
 29.77     632.00
 29.87     548.00
 29.97     541.00
 30.07     636.00
 30.17     491.47
 30.27     552.00
 30.37     596.00
 30.47     499.69
 30.57     556.00
 30.67     570.00
 30.77     553.67
 30.87     633.00
 30.97     608.00
 31.07     637.00
 31.17     622.00
 31.27     526.00
 31.37     561.00
 31.47     520.00
 31.57     491.00
 31.67     556.00
 31.77     523.00
 31.87     520.00
 31.97     511.00
 32.07     538.93
 32.17     559.00
 32.27     506.44
 32.37     552.00
 32.47     558.00
 32.57     570.00
 32.67     485.07
 32.77     540.00
 32.87     516.00
 32.97     486.28
 33.07     569.00
 33.17     529.00
 33.27     534.47
 33.37     562.00
 33.47     529.00
 33.57     595.00
 33.67     629.43
 33.77     763.97
 33.87     851.73
 33.97     959.00
 34.07     998.00
 34.17    1015.00
 34.27     893.77
 34.37     812.00
 34.47     672.41
 34.57     596.94
 34.67     612.22
 34.77     533.00
 34.87     544.00
 34.97     534.00
 35.07     536.00
 35.17     490.84
 35.27     512.00
 35.37     496.48
 35.47     488.00
 35.57     507.55
 35.67     528.00
 35.77     489.71
 35.87     519.34
 35.97     482.00
 36.07     452.00
 36.17     518.40
 36.27     546.00
 36.37     505.20
 36.47     482.31
 36.57     522.46
 36.67     519.00
 36.77     526.54
 36.87     489.25
 36.97     486.73
 37.07     519.00
 37.17     492.00
 37.27     481.00
 37.37     479.20
 37.47     515.00
 37.57     491.00
 37.67     551.00
 37.77     476.65
 37.87     504.00
 37.97     517.15
 38.07     494.00
 38.17     490.00
 38.27     487.00
 38.37     481.00
 38.47     523.87
 38.57     493.00
 38.67     477.00
 38.77     463.00
 38.87     509.00
 38.97     501.00
 39.07     511.15
 39.17     528.65
 39.27     525.76
 39.37     497.00
 39.47     542.12
 39.57     532.75
 39.67     474.35
 39.77     485.80
 39.87     503.47
 39.97     496.00
 40.07     521.00
 40.17     525.30
 40.27     513.00
 40.37     508.00
 40.47     455.02
 40.57     436.00
 40.67     487.00
 40.77     479.03
 40.87     474.00
 40.97     468.00
 41.07     519.00
 41.17     484.17
 41.27     488.00
 41.37     510.00
 41.47     506.00
 41.57     488.43
 41.67     466.00
 41.77     484.00
 41.87     522.00
 41.97     495.75
 42.07     522.17
 42.17     522.00
 42.27     567.00
 42.37     526.00
 42.47     539.80
 42.57     584.00
 42.67     593.00
 42.77     570.00
 42.87     628.00
 42.97     566.00
 43.07     518.00
 43.17     550.00
 43.27     490.20
 43.37     532.84
 43.47     521.00
 43.57     523.00
 43.67     502.00
 43.77     507.00
 43.87     490.55
 43.97     523.00
 44.07     458.09
 44.17     507.21
 44.27     490.00
 44.37     518.00
 44.47     501.00
 44.57     475.75
 44.67     531.41
 44.77     483.00
 44.87     494.71
 44.97     515.56
 45.07     535.00
 45.17     507.00
 45.27     466.00
 45.37     529.29
 45.47     477.00
 45.57     511.00
 45.67     507.00
 45.77     497.00
 45.87     448.00
 45.97     518.98
 46.07     533.00
 46.17     517.00
 46.27     504.55
 46.37     520.00
 46.47     499.00
 46.57     485.60
 46.67     495.00
 46.77     491.00
 46.87     458.70
 46.97     531.00
 47.07     525.18
 47.17     499.00
 47.27     501.00
 47.37     517.00
 47.47     519.00
 47.57     539.00
 47.67     557.00
 47.77     607.23
 47.87     581.00
 47.97     560.00
 48.07     582.00
 48.17     563.64
 48.27     554.00
 48.37     536.00
 48.47     522.00
 48.57     568.00
 48.67     502.80
 48.77     517.00
 48.87     505.00
 48.97     557.30
 49.07     549.00
 49.17     567.38
 49.27     608.40
 49.37     581.87
 49.47     656.00
 49.57     683.43
 49.67     775.00
 49.77     965.00
 49.87    1149.62
 49.97    1520.00
 50.07    1989.96
 50.17    2180.26
 50.27    2351.00
 50.37    2294.00
 50.47    1986.12
 50.57    1690.00
 50.67    1290.41
 50.77     977.00
 50.87     849.00
 50.97     727.00
 51.07     673.00
 51.17     609.38
 51.27     602.21
 51.37     616.00
 51.47     579.00
 51.57     562.00
 51.67     528.00
 51.77     590.00
 51.87     562.00
 51.97     511.29
 52.07     574.00
 52.17     528.71
 52.27     507.90
 52.37     561.00
 52.47     505.30
 52.57     596.00
 52.67     595.98
 52.77     586.00
 52.87     574.45
 52.97     689.91
 53.07     719.62
 53.17     801.00
 53.27     989.00
 53.37    1047.00
 53.47    1193.22
 53.57    1227.88
 53.67    1216.84
 53.77    1127.69
 53.87     922.00
 53.97     793.00
 54.07     701.00
 54.17     670.00
 54.27     631.00
 54.37     613.00
 54.47     561.00
 54.57     574.00
 54.67     510.90
 54.77     544.00
 54.87     577.00
 54.97     534.00
 55.07     567.00
 55.17     533.83
 55.27     590.00
 55.37     581.00
 55.47     558.00
 55.57     546.00
 55.67     590.98
 55.77     578.00
 55.87     640.32
 55.97     628.00
 56.07     651.08
 56.17     768.80
 56.27     875.90
 56.37     947.00
 56.47    1205.00
 56.57    1522.00
 56.67    1948.00
 56.77    2176.00
 56.87    2374.00
 56.97    2479.00
 57.07    2466.00
 57.17    2201.99
 57.27    1912.74
 57.37    1564.00
 57.47    1247.07
 57.57    1034.23
 57.67     911.00
 57.77     775.93
 57.87     691.35
 57.97     710.33
 58.07     687.46
 58.17     730.00
 58.27     713.89
 58.37     784.00
 58.47     870.00
 58.57     925.00
 58.67     970.00
 58.77    1150.00
 58.87    1124.00
 58.97    1241.00
 59.07    1247.66
 59.17    1315.29
 59.27    1262.45
 59.37    1278.00
 59.47    1318.00
 59.57    1264.00
 59.67    1232.00
 59.77    1088.25
 59.87    1220.32
 59.97    1307.00
 60.07    1380.00
 60.17    1550.00
 60.27    1515.78
 60.37    1472.01
 60.47    1489.00
 60.57    1342.00
 60.67    1203.06
 60.77    1064.00
 60.87     935.00
 60.97     811.00
 61.07     695.00
 61.17     633.00
 61.27     697.00
 61.37     680.42
 61.47     679.00
 61.57     751.51
 61.67     763.00
 61.77     921.00
 61.87    1019.00
 61.97    1073.00
 62.07    1202.64
 62.17    1363.97
 62.27    1368.64
 62.37    1216.00
 62.47    1186.88
 62.57    1167.80
 62.67     978.00
 62.77     829.00
 62.87     726.97
 62.97     698.00
 63.07     698.21
 63.17     592.49
 63.27     576.00
 63.37     581.00
 63.47     543.00
 63.57     573.86
 63.67     594.00
 63.77     568.07
 63.87     638.48
 63.97     655.15
 64.07     621.65
 64.17     719.00
 64.27     733.39
 64.37     811.00
 64.47     946.33
 64.57     984.85
 64.67    1075.00
 64.77     955.00
 64.87    1018.00
 64.97     980.34
 65.07     895.43
 65.17     873.00
 65.27     815.00
 65.37     691.37
 65.47     647.09
 65.57     685.00
 65.67     603.00
 65.77     614.34
 65.87     591.41
 65.97     584.00
 66.07     558.00
 66.17     555.00
 66.27     502.00
 66.37     543.66
 66.47     531.00
 66.57     612.89
 66.67     551.00
 66.77     622.57
 66.87     582.00
 66.97     559.00
 67.07     653.95
 67.17     635.00
 67.27     769.00
 67.37     786.89
 67.47     980.16
 67.57    1148.00
 67.67    1378.00
 67.77    1561.00
 67.87    1783.56
 67.97    2072.00
 68.07    2151.46
 68.17    2414.00
 68.27    2430.00
 68.37    2187.00
 68.47    2086.00
 68.57    1907.00
 68.67    1561.69
 68.77    1250.35
 68.87    1038.00
 68.97     952.17
 69.07     811.23
 69.17     752.00
 69.27     682.00
 69.37     597.97
 69.47     615.00
 69.57     616.00
 69.67     552.00
 69.77     566.00
 69.87     579.00
 69.97     574.00
 70.07     591.00
 70.17     607.00
 70.27     570.00
 70.37     581.69
 70.47     567.00
 70.57     593.00
 70.67     618.05
 70.77     549.82
 70.87     593.85
 70.97     628.24
 71.07     666.24
 71.17     745.20
 71.27     831.98
 71.37     847.00
 71.47     975.85
 71.57    1090.00
 71.67    1264.00
 71.77    1434.00
 71.87    1588.00
 71.97    1762.00
 72.07    1821.00
 72.17    1846.00
 72.27    1750.00
 72.37    1608.00
 72.47    1597.00
 72.57    1459.00
 72.67    1247.81
 72.77    1074.00
 72.87    1005.95
 72.97     861.00
 73.07     809.00
 73.17     736.00
 73.27     723.00
 73.37     652.00
 73.47     644.85
 73.57     665.00
 73.67     609.38
 73.77     577.00
 73.87     581.34
 73.97     557.79
 74.07     561.46
 74.17     622.54
 74.27     612.00
 74.37     610.00
 74.47     617.00
 74.57     597.00
 74.67     614.00
 74.77     621.00
 74.87     599.00
 74.97     618.00
 75.07     634.00
 75.17     614.00
 75.27     608.00
 75.37     550.00
 75.47     528.00
 75.57     551.00
 75.67     516.87
 75.77     562.00
 75.87     557.00
 75.97     590.73
 76.07     634.16
 76.17     636.84
 76.27     617.00
 76.37     662.01
 76.47     760.00
 76.57     687.00
 76.67     751.10
 76.77     674.00
 76.87     710.20
 76.97     686.47
 77.07     662.45
 77.17     621.00
 77.27     577.00
 77.37     539.00
 77.47     511.00
 77.57     587.00
 77.67     585.99
 77.77     517.37
 77.87     542.26
 77.97     523.00
 78.07     554.21
 78.17     518.00
 78.27     522.00
 78.37     515.00
 78.47     498.00
 78.57     497.00
 78.67     493.00
 78.77     500.00
 78.87     477.99
 78.97     541.22
 79.07     490.00
 79.17     513.00
 79.27     500.95
 79.37     504.00
 79.47     516.54
 79.57     477.00
 79.67     561.56
 79.77     514.44
 79.87     529.71
 79.97     556.92
 80.07     520.00
 80.17     533.00
 80.27     573.00
 80.37     559.00
 80.47     603.26
 80.57     571.51
 80.67     571.00
 80.77     641.00
 80.87     673.40
 80.97     656.00
 81.07     626.00
 81.17     747.23
 81.27     746.00
 81.37     738.88
 81.47     760.44
 81.57     762.00
 81.67     787.25
 81.77     741.00
 81.87     744.00
 81.97     681.08
 82.07     729.00
 82.17     619.79
 82.27     648.00
 82.37     607.70
 82.47     656.54
 82.57     608.00
 82.67     569.00
 82.77     542.00
 82.87     534.21
 82.97     538.04
 83.07     542.00
 83.17     573.99
 83.27     549.17
 83.37     469.00
 83.47     502.00
 83.57     518.00
 83.67     510.00
 83.77     522.36
 83.87     581.00
 83.97     574.94
 84.07     597.84
 84.17     605.63
 84.27     519.75
 84.37     555.00
 84.47     557.06
 84.57     588.13
 84.67     580.95
 84.77     464.00
 84.87     498.42
 84.97     546.57
 85.07     555.92
 85.17     566.00
 85.27     512.00
 85.37     483.00
 85.47     493.75
 85.57     523.00
 85.67     471.86
 85.77     507.64
 85.87     489.00
 85.97     503.00
 86.07     555.00
 86.17     543.00
 86.27     515.00
 86.37     514.00
 86.47     547.00
 86.57     507.00
 86.67     580.36
 86.77     572.15
 86.87     570.00
 86.97     547.00
 87.07     594.00
 87.17     543.28
 87.27     593.46
 87.37     562.27
 87.47     613.04
 87.57     608.26
 87.67     626.00
 87.77     625.00
 87.87     605.00
 87.97     597.00
 88.07     639.00
 88.17     594.68
 88.27     570.00
 88.37     587.58
 88.47     601.96
 88.57     568.00
 88.67     601.00
 88.77     586.00
 88.87     594.22
 88.97     570.00
 89.07     573.00
 89.17     589.04
 89.27     611.00
 89.37     578.00
 89.47     580.00
 89.57     632.40
 89.67     624.00
 89.77     599.31
 89.87     582.00
 89.97     529.45
 90.07     565.00
 90.17     543.61
 90.27     542.04
 90.37     535.00
 90.47     547.08
 90.57     495.00
 90.67     480.00
 90.77     518.00
 90.87     522.00
 90.97     550.32
 91.07     494.00
 91.17     461.00
 91.27     483.31
 91.37     550.00
 91.47     528.44
 91.57     500.00
 91.67     547.00
 91.77     557.35
 91.87     502.00
 91.97     551.00
 92.07     576.00
 92.17     519.40
 92.27     545.13
 92.37     511.00
 92.47     557.16
 92.57     565.35
 92.67     659.00
 92.77     604.08
 92.87     661.00
 92.97     614.00
 93.07     704.16
 93.17     757.00
 93.27     765.00
 93.37     704.00
 93.47     799.63
 93.57     761.08
 93.67     836.00
 93.77     765.33
 93.87     782.55
 93.97     877.00
 94.07     872.00
 94.17     819.00
 94.27     871.00
 94.37     803.48
 94.47     881.00
 94.57     840.34
 94.67     915.00
 94.77     920.14
 94.87     897.00
 94.97     902.98
 95.07     900.00
 95.17     853.00
 95.27     880.00
 95.37     830.00
 95.47     798.00
 95.57     752.58
 95.67     729.00
 95.77     730.00
 95.87     781.00
 95.97     726.00
 96.07     691.00
 96.17     668.00
 96.27     690.00
 96.37     780.00
 96.47     802.90
 96.57     789.00
 96.67     827.00
 96.77     864.00
 96.87     958.90
 96.97    1046.84
 97.07    1075.03
 97.17    1155.03
 97.27    1250.00
 97.37    1270.00
 97.47    1310.54
 97.57    1419.00
 97.67    1484.00
 97.77    1472.95
 97.87    1436.41
 97.97    1296.72
 98.07    1313.17
 98.17    1200.00
 98.27    1123.99
 98.37    1092.00
 98.47    1103.00
 98.57    1032.00
 98.67     979.00
 98.77     951.77
 98.87     853.00
 98.97     854.00
 99.07     850.59
 99.17     815.67
 99.27     889.52
 99.37     935.72
 99.47     908.42
 99.57    1058.90
 99.67    1100.82
 99.77    1219.77
 99.87    1257.00
 99.97    1257.00
100.07    1472.00
100.17    1565.00
100.27    1660.00
100.37    1682.00
100.47    1851.53
100.57    1881.41
100.67    1961.00
100.77    1976.00
100.87    2043.65
100.97    2036.00
101.07    1918.00
101.17    1990.00
101.27    1911.00
101.37    1736.11
101.47    1686.60
101.57    1697.01
101.67    1493.00
101.77    1427.00
101.87    1424.00
101.97    1289.26
102.07    1339.00
102.17    1227.13
102.27    1186.34
102.37    1125.00
102.47    1096.46
102.57    1165.00
102.67    1109.00
102.77    1064.13
102.87    1064.00
102.97    1051.00
103.07     974.00
103.17     946.00
103.27     945.00
103.37     870.00
103.47     865.00
103.57     815.00
103.67     822.51
103.77     699.46
103.87     723.00
103.97     659.00
104.07     599.45
104.17     583.17
104.27     639.00
104.37     591.00
104.47     562.00
104.57     563.00
104.67     540.00
104.77     567.12
104.87     508.05
104.97     519.30
105.07     494.14
105.17     488.39
105.27     563.82
105.37     497.12
105.47     517.00
105.57     540.33
105.67     570.00
105.77     552.00
105.87     546.00
105.97     499.42
106.07     559.00
106.17     566.00
106.27     587.68
106.37     597.00
106.47     556.00
106.57     645.64
106.67     616.00
106.77     585.00
106.87     599.00
106.97     602.00
107.07     652.00
107.17     664.00
107.27     688.00
107.37     687.00
107.47     709.91
107.57     722.55
107.67     690.76
107.77     647.12
107.87     661.34
107.97     700.00
108.07     734.41
108.17     692.68
108.27     682.93
108.37     683.93
108.47     657.18
108.57     682.00
108.67     728.00
108.77     697.22
108.87     688.00
108.97     722.00
109.07     637.00
109.17     650.00
109.27     677.00
109.37     722.32
109.47     648.00
109.57     661.00
109.67     615.00
109.77     615.00
109.87     618.00
109.97     625.00
110.07     560.97
110.17     625.00
110.27     610.30
110.37     569.00
110.47     576.00
110.57     591.00
110.67     532.00
110.77     546.00
110.87     586.00
110.97     527.74
111.07     552.72
111.17     543.00
111.27     565.15
111.37     556.33
111.47     575.00
111.57     519.00
111.67     565.00
111.77     527.00
111.87     576.00
111.97     571.92
112.07     547.00
112.17     545.00
112.27     542.34
112.37     535.94
112.47     538.00
112.57     571.00
112.67     543.00
112.77     556.00
112.87     580.00
112.97     628.00
113.07     601.00
113.17     619.00
113.27     658.79
113.37     611.00
113.47     616.00
113.57     643.00
113.67     697.18
113.77     688.00
113.87     701.00
113.97     746.83
114.07     837.73
114.17     789.00
114.27     874.00
114.37     895.80
114.47     987.00
114.57    1035.00
114.67    1210.00
114.77    1308.54
114.87    1433.00
114.97    1648.00
115.07    1909.92
115.17    2099.00
115.27    2285.87
115.37    2548.59
115.47    2909.00
115.57    3195.21
115.67    3569.00
115.77    3690.00
115.87    4121.00
115.97    4562.00
116.07    4868.00
116.17    5320.00
116.27    5695.00
116.37    5926.00
116.47    6232.00
116.57    6523.00
116.67    6642.00
116.77    6747.00
116.87    6958.00
116.97    6742.00
117.07    6794.67
117.17    6529.00
117.27    6189.92
117.37    5913.00
117.47    5695.32
117.57    5367.35
117.67    4982.00
117.77    4676.00
117.87    4312.00
117.97    3988.00
118.07    3575.32
118.17    3295.29
118.27    2885.63
118.37    2602.00
118.47    2548.00
118.57    2119.00
118.67    1863.90
118.77    1688.00
118.87    1565.80
118.97    1463.25
119.07    1290.00
119.17    1130.00
119.27    1035.74
119.37     978.00
119.47     864.00
119.57     853.00
119.67     774.71
119.77     785.00
119.87     730.36
119.97     707.59
120.07     653.00
120.17     650.25
120.27     659.00
120.37     590.00
120.47     586.46
120.57     592.59
120.67     577.00
120.77     580.82
120.87     601.00
120.97     591.00
121.07     583.00
121.17     586.00
121.27     581.00
121.37     539.47
121.47     561.99
121.57     576.00
121.67     615.65
121.77     567.80
121.87     573.00
121.97     567.00
122.07     584.19
122.17     578.00
122.27     632.00
122.37     608.00
122.47     600.41
122.57     574.00
122.67     626.00
122.77     584.85
122.87     668.59
122.97     647.00
123.07     622.00
123.17     587.71
123.27     612.25
123.37     655.00
123.47     630.00
123.57     657.00
123.67     602.99
123.77     622.00
123.87     599.00
123.97     648.00
124.07     628.00
124.17     598.00
124.27     616.00
124.37     567.00
124.47     603.00
124.57     584.00
124.67     610.00
124.77     603.00
124.87     557.00
124.97     590.00
