  9.97     535.00
 10.07     586.00
 10.17     595.00
 10.27     602.00
 10.37     562.00
 10.47     591.00
 10.57     554.00
 10.67     555.00
 10.77     555.79
 10.87     566.46
 10.97     638.00
 11.07     553.26
 11.17     599.00
 11.27     531.15
 11.37     576.00
 11.47     600.31
 11.57     561.00
 11.67     593.00
 11.77     608.00
 11.87     567.61
 11.97     669.00
 12.07     625.65
 12.17     655.00
 12.27     659.00
 12.37     619.00
 12.47     642.00
 12.57     561.61
 12.67     544.00
 12.77     537.00
 12.87     536.83
 12.97     558.33
 13.07     571.00
 13.17     606.00
 13.27     509.00
 13.37     533.00
 13.47     549.00
 13.57     537.45
 13.67     596.00
 13.77     571.00
 13.87     604.93
 13.97     522.14
 14.07     610.00
 14.17     514.00
 14.27     525.00
 14.37     561.00
 14.47     551.60
 14.57     559.00
 14.67     566.15
 14.77     499.00
 14.87     518.73
 14.97     578.63
 15.07     608.48
 15.17     543.88
 15.27     572.00
 15.37     546.00
 15.47     566.00
 15.57     555.00
 15.67     578.14
 15.77     585.25
 15.87     556.49
 15.97     535.01
 16.07     600.36
 16.17     572.02
 16.27     594.34
 16.37     528.26
 16.47     522.73
 16.57     584.00
 16.67     523.00
 16.77     568.00
 16.87     536.00
 16.97     532.00
 17.07     547.00
 17.17     527.50
 17.27     538.00
 17.37     577.46
 17.47     559.92
 17.57     571.29
 17.67     573.34
 17.77     555.12
 17.87     571.87
 17.97     555.00
 18.07     534.95
 18.17     624.00
 18.27     559.35
 18.37     546.00
 18.47     553.00
 18.57     566.09
 18.67     547.00
 18.77     579.31
 18.87     561.52
 18.97     551.00
 19.07     539.00
 19.17     532.61
 19.27     539.00
 19.37     564.00
 19.47     532.63
 19.57     576.00
 19.67     591.71
 19.77     596.00
 19.87     542.74
 19.97     526.00
 20.07     590.00
 20.17     538.00
 20.27     525.67
 20.37     514.00
 20.47     518.00
 20.57     562.00
 20.67     584.03
 20.77     519.07
 20.87     600.72
 20.97     536.00
 21.07     522.21
 21.17     510.90
 21.27     520.00
 21.37     541.00
 21.47     523.32
 21.57     511.00
 21.67     562.52
 21.77     588.00
 21.87     581.00
 21.97     553.00
 22.07     549.00
 22.17     562.00
 22.27     555.00
 22.37     541.00
 22.47     544.00
 22.57     564.65
 22.67     519.00
 22.77     542.00
 22.87     539.59
 22.97     577.00
 23.07     557.68
 23.17     579.35
 23.27     555.00
 23.37     574.00
 23.47     535.00
 23.57     589.00
 23.67     583.00
 23.77     547.00
 23.87     577.00
 23.97     557.00
 24.07     597.04
 24.17     582.00
 24.27     556.00
 24.37     588.69
 24.47     613.00
 24.57     602.44
 24.67     613.00
 24.77     603.00
 24.87     617.00
 24.97     678.00
 25.07     595.11
 25.17     553.00
 25.27     546.01
 25.37     535.59
 25.47     506.00
 25.57     552.00
 25.67     569.00
 25.77     585.00
 25.87     550.00
 25.97     562.00
 26.07     500.85
 26.17     505.93
 26.27     520.06
 26.37     544.00
 26.47     537.23
 26.57     547.51
 26.67     555.36
 26.77     518.00
 26.87     588.00
 26.97     505.49
 27.07     586.00
 27.17     560.00
 27.27     575.20
 27.37     585.55
 27.47     492.00
 27.57     541.33
 27.67     618.00
 27.77     550.00
 27.87     596.00
 27.97     635.00
 28.07     716.77
 28.17     892.00
 28.27     928.00
 28.37     929.00
 28.47     800.21
 28.57     721.00
 28.67     664.00
 28.77     669.60
 28.87     758.00
 28.97     784.00
 29.07     856.00
 29.17     663.00
 29.27     643.00
 29.37     592.00
 29.47     608.36
 29.57     591.00
 29.67     607.00
 29.77     667.00
 29.87     621.00
 29.97     585.00
 30.07     557.00
 30.17     547.00
 30.27     584.00
 30.37     565.00
 30.47     576.00
 30.57     536.00
 30.67     580.00
 30.77     614.88
 30.87     598.00
 30.97     560.02
 31.07     585.00
 31.17     611.00
 31.27     556.00
 31.37     565.62
 31.47     592.00
 31.57     530.00
 31.67     488.86
 31.77     528.00
 31.87     542.00
 31.97     508.00
 32.07     540.00
 32.17     540.34
 32.27     540.00
 32.37     535.00
 32.47     558.00
 32.57     593.00
 32.67     490.25
 32.77     495.00
 32.87     561.00
 32.97     544.86
 33.07     593.00
 33.17     538.96
 33.27     543.00
 33.37     593.00
 33.47     507.00
 33.57     532.25
 33.67     613.00
 33.77     735.71
 33.87     854.00
 33.97    1007.00
 34.07    1066.17
 34.17    1035.00
 34.27     904.95
 34.37     794.00
 34.47     697.00
 34.57     594.00
 34.67     569.00
 34.77     519.00
 34.87     488.00
 34.97     526.00
 35.07     550.00
 35.17     490.82
 35.27     497.00
 35.37     522.51
 35.47     557.93
 35.57     558.00
 35.67     544.91
 35.77     558.37
 35.87     505.00
 35.97     520.69
 36.07     525.31
 36.17     476.00
 36.27     474.50
 36.37     542.90
 36.47     479.09
 36.57     524.15
 36.67     547.00
 36.77     466.00
 36.87     493.00
 36.97     511.00
 37.07     495.00
 37.17     492.00
 37.27     513.00
 37.37     543.00
 37.47     522.00
 37.57     481.29
 37.67     498.79
 37.77     570.94
 37.87     520.00
 37.97     549.61
 38.07     490.22
 38.17     514.00
 38.27     528.00
 38.37     468.00
 38.47     502.00
 38.57     542.78
 38.67     451.00
 38.77     481.00
 38.87     529.00
 38.97     526.70
 39.07     466.00
 39.17     472.00
 39.27     474.00
 39.37     474.00
 39.47     467.12
 39.57     484.00
 39.67     507.00
 39.77     501.99
 39.87     543.78
 39.97     486.24
 40.07     475.00
 40.17     472.56
 40.27     484.00
 40.37     464.20
 40.47     470.76
 40.57     533.50
 40.67     512.00
 40.77     541.72
 40.87     500.00
 40.97     468.30
 41.07     518.00
 41.17     519.00
 41.27     481.75
 41.37     515.00
 41.47     511.00
 41.57     532.29
 41.67     472.00
 41.77     540.11
 41.87     490.91
 41.97     474.00
 42.07     503.00
 42.17     499.88
 42.27     498.13
 42.37     557.33
 42.47     555.00
 42.57     545.00
 42.67     588.00
 42.77     592.00
 42.87     557.00
 42.97     547.00
 43.07     578.00
 43.17     533.00
 43.27     459.00
 43.37     542.76
 43.47     497.79
 43.57     464.00
 43.67     480.00
 43.77     497.98
 43.87     518.46
 43.97     493.00
 44.07     503.00
 44.17     503.90
 44.27     488.00
 44.37     531.10
 44.47     499.00
 44.57     476.00
 44.67     462.00
 44.77     531.00
 44.87     477.00
 44.97     480.00
 45.07     480.05
 45.17     511.21
 45.27     495.31
 45.37     476.25
 45.47     518.90
 45.57     530.28
 45.67     483.00
 45.77     519.76
 45.87     501.00
 45.97     517.00
 46.07     467.07
 46.17     528.00
 46.27     490.00
 46.37     549.00
 46.47     485.00
 46.57     512.30
 46.67     477.06
 46.77     496.00
 46.87     495.00
 46.97     494.93
 47.07     518.16
 47.17     505.00
 47.27     506.00
 47.37     541.00
 47.47     535.00
 47.57     503.62
 47.67     551.00
 47.77     568.00
 47.87     593.86
 47.97     608.18
 48.07     600.00
 48.17     545.00
 48.27     560.33
 48.37     549.00
 48.47     520.00
 48.57     565.12
 48.67     500.00
 48.77     558.00
 48.87     543.92
 48.97     595.00
 49.07     519.36
 49.17     494.00
 49.27     573.56
 49.37     608.00
 49.47     718.00
 49.57     739.63
 49.67     825.00
 49.77    1032.09
 49.87    1237.95
 49.97    1618.00
 50.07    2142.00
 50.17    2320.33
 50.27    2525.52
 50.37    2454.48
 50.47    2075.00
 50.57    1646.00
 50.67    1212.00
 50.77     940.85
 50.87     786.00
 50.97     645.00
 51.07     695.00
 51.17     653.00
 51.27     633.77
 51.37     539.20
 51.47     603.00
 51.57     570.00
 51.67     512.44
 51.77     540.61
 51.87     563.00
 51.97     485.48
 52.07     560.00
 52.17     577.00
 52.27     516.00
 52.37     544.00
 52.47     570.00
 52.57     582.02
 52.67     571.00
 52.77     586.67
 52.87     582.00
 52.97     699.00
 53.07     762.00
 53.17     841.00
 53.27     955.00
 53.37    1054.92
 53.47    1070.00
 53.57    1198.00
 53.67    1115.00
 53.77    1082.48
 53.87     974.09
 53.97     835.00
 54.07     760.00
 54.17     663.00
 54.27     586.40
 54.37     578.29
 54.47     552.00
 54.57     570.00
 54.67     558.00
 54.77     545.00
 54.87     558.00
 54.97     550.00
 55.07     567.00
 55.17     581.61
 55.27     533.00
 55.37     506.33
 55.47     550.00
 55.57     548.00
 55.67     549.00
 55.77     593.00
 55.87     603.12
 55.97     596.00
 56.07     598.23
 56.17     712.66
 56.27     759.00
 56.37     922.00
 56.47    1146.54
 56.57    1477.00
 56.67    1998.83
 56.77    2244.00
 56.87    2527.59
 56.97    2730.61
 57.07    2589.00
 57.17    2273.31
 57.27    1973.00
 57.37    1525.00
 57.47    1190.62
 57.57    1000.00
 57.67     836.00
 57.77     753.00
 57.87     676.96
 57.97     624.00
 58.07     689.64
 58.17     684.00
 58.27     731.00
 58.37     844.50
 58.47     895.00
 58.57    1036.60
 58.67    1236.30
 58.77    1335.70
 58.87    1503.00
 58.97    1601.00
 59.07    1556.27
 59.17    1630.00
 59.27    1564.00
 59.37    1374.07
 59.47    1343.00
 59.57    1206.17
 59.67    1256.00
 59.77    1194.00
 59.87    1098.00
 59.97    1198.76
 60.07    1337.00
 60.17    1486.55
 60.27    1497.71
 60.37    1627.00
 60.47    1475.00
 60.57    1391.00
 60.67    1242.00
 60.77    1026.00
 60.87     870.00
 60.97     744.00
 61.07     673.00
 61.17     620.00
 61.27     600.00
 61.37     631.00
 61.47     713.00
 61.57     671.00
 61.67     782.00
 61.77     824.00
 61.87    1042.48
 61.97    1144.97
 62.07    1292.26
 62.17    1364.00
 62.27    1383.00
 62.37    1376.98
 62.47    1275.15
 62.57    1127.00
 62.67    1010.00
 62.77     829.00
 62.87     701.00
 62.97     621.00
 63.07     592.00
 63.17     594.23
 63.27     608.00
 63.37     581.00
 63.47     586.53
 63.57     568.00
 63.67     543.00
 63.77     554.30
 63.87     570.00
 63.97     578.00
 64.07     688.68
 64.17     742.00
 64.27     752.00
 64.37     797.00
 64.47     923.00
 64.57     904.50
 64.67     972.00
 64.77    1038.00
 64.87    1065.00
 64.97     939.00
 65.07     864.00
 65.17     866.00
 65.27     803.47
 65.37     680.00
 65.47     655.00
 65.57     624.75
 65.67     600.00
 65.77     600.00
 65.87     621.24
 65.97     535.00
 66.07     550.00
 66.17     529.79
 66.27     555.00
 66.37     537.00
 66.47     540.00
 66.57     568.66
 66.67     560.00
 66.77     501.00
 66.87     599.73
 66.97     548.00
 67.07     595.00
 67.17     588.00
 67.27     646.00
 67.37     775.00
 67.47     924.56
 67.57    1090.00
 67.67    1333.00
 67.77    1552.00
 67.87    1921.00
 67.97    2150.00
 68.07    2410.91
 68.17    2377.00
 68.27    2446.00
 68.37    2270.00
 68.47    2120.00
 68.57    1793.00
 68.67    1432.00
 68.77    1262.00
 68.87     979.00
 68.97     842.00
 69.07     715.00
 69.17     665.25
 69.27     620.00
 69.37     618.27
 69.47     616.00
 69.57     594.00
 69.67     594.00
 69.77     513.29
 69.87     605.00
 69.97     549.40
 70.07     539.00
 70.17     544.00
 70.27     605.00
 70.37     514.51
 70.47     593.09
 70.57     590.83
 70.67     582.00
 70.77     547.00
 70.87     569.00
 70.97     583.37
 71.07     590.00
 71.17     672.31
 71.27     766.39
 71.37     804.00
 71.47     941.03
 71.57    1110.00
 71.67    1214.00
 71.77    1447.95
 71.87    1681.72
 71.97    1733.00
 72.07    1909.00
 72.17    1911.17
 72.27    2031.00
 72.37    1916.00
 72.47    1647.00
 72.57    1451.00
 72.67    1322.00
 72.77    1185.00
 72.87    1051.00
 72.97    1004.75
 73.07     903.00
 73.17     849.21
 73.27     777.00
 73.37     743.00
 73.47     773.58
 73.57     680.43
 73.67     572.00
 73.77     578.00
 73.87     582.00
 73.97     610.00
 74.07     544.68
 74.17     531.91
 74.27     600.00
 74.37     528.19
 74.47     629.00
 74.57     597.01
 74.67     650.00
 74.77     601.35
 74.87     627.00
 74.97     532.44
 75.07     538.05
 75.17     622.00
 75.27     617.00
 75.37     584.00
 75.47     567.00
 75.57     561.00
 75.67     506.85
 75.77     535.00
 75.87     572.86
 75.97     587.00
 76.07     601.00
 76.17     631.00
 76.27     626.60
 76.37     650.00
 76.47     706.00
 76.57     691.00
 76.67     692.00
 76.77     655.88
 76.87     656.00
 76.97     682.14
 77.07     597.08
 77.17     622.00
 77.27     624.41
 77.37     537.78
 77.47     554.00
 77.57     547.00
 77.67     498.91
 77.77     536.00
 77.87     537.00
 77.97     483.27
 78.07     496.16
 78.17     512.55
 78.27     512.00
 78.37     532.35
 78.47     483.52
 78.57     529.00
 78.67     518.00
 78.77     525.00
 78.87     517.00
 78.97     565.41
 79.07     467.00
 79.17     526.00
 79.27     514.00
 79.37     539.44
 79.47     557.00
 79.57     560.93
 79.67     493.59
 79.77     538.98
 79.87     569.87
 79.97     538.00
 80.07     528.00
 80.17     591.03
 80.27     574.45
 80.37     601.83
 80.47     540.52
 80.57     551.79
 80.67     609.04
 80.77     599.89
 80.87     621.11
 80.97     616.00
 81.07     664.13
 81.17     700.29
 81.27     708.00
 81.37     770.34
 81.47     701.25
 81.57     721.00
 81.67     795.00
 81.77     760.33
 81.87     715.00
 81.97     706.00
 82.07     674.55
 82.17     677.04
 82.27     714.00
 82.37     693.00
 82.47     583.00
 82.57     580.00
 82.67     625.31
 82.77     532.11
 82.87     529.00
 82.97     530.50
 83.07     577.00
 83.17     550.05
 83.27     555.00
 83.37     512.00
 83.47     541.00
 83.57     558.00
 83.67     531.00
 83.77     559.58
 83.87     556.00
 83.97     551.09
 84.07     557.17
 84.17     592.00
 84.27     565.00
 84.37     518.59
 84.47     538.00
 84.57     583.97
 84.67     508.39
 84.77     581.89
 84.87     509.00
 84.97     517.00
 85.07     507.47
 85.17     507.00
 85.27     503.00
 85.37     481.96
 85.47     522.00
 85.57     558.73
 85.67     474.36
 85.77     547.49
 85.87     535.00
 85.97     487.89
 86.07     511.42
 86.17     543.00
 86.27     537.36
 86.37     563.51
 86.47     523.00
 86.57     494.81
 86.67     539.00
 86.77     563.65
 86.87     580.00
 86.97     613.00
 87.07     589.00
 87.17     638.00
 87.27     612.87
 87.37     605.00
 87.47     663.00
 87.57     622.22
 87.67     620.00
 87.77     579.26
 87.87     639.01
 87.97     632.06
 88.07     554.22
 88.17     584.00
 88.27     578.00
 88.37     576.00
 88.47     516.89
 88.57     571.00
 88.67     587.37
 88.77     550.00
 88.87     587.00
 88.97     587.60
 89.07     549.91
 89.17     568.00
 89.27     589.46
 89.37     627.00
 89.47     550.57
 89.57     604.00
 89.67     570.00
 89.77     547.70
 89.87     577.00
 89.97     538.00
 90.07     503.00
 90.17     500.00
 90.27     535.81
 90.37     566.84
 90.47     521.00
 90.57     502.00
 90.67     514.00
 90.77     543.46
 90.87     540.00
 90.97     511.00
 91.07     489.55
 91.17     470.00
 91.27     529.41
 91.37     542.62
 91.47     493.00
 91.57     517.00
 91.67     565.14
 91.77     474.00
 91.87     535.00
 91.97     553.74
 92.07     517.00
 92.17     542.00
 92.27     556.00
 92.37     588.02
 92.47     605.00
 92.57     610.00
 92.67     592.00
 92.77     681.00
 92.87     670.00
 92.97     658.49
 93.07     709.00
 93.17     777.00
 93.27     775.09
 93.37     803.95
 93.47     795.00
 93.57     755.56
 93.67     818.00
 93.77     845.00
 93.87     819.00
 93.97     866.76
 94.07     906.00
 94.17     907.00
 94.27     890.00
 94.37     879.99
 94.47     805.26
 94.57     894.26
 94.67     880.00
 94.77     927.00
 94.87     888.00
 94.97     953.00
 95.07     963.00
 95.17     910.00
 95.27     868.00
 95.37     797.00
 95.47     809.00
 95.57     780.00
 95.67     708.78
 95.77     674.52
 95.87     648.00
 95.97     707.00
 96.07     685.00
 96.17     663.00
 96.27     665.00
 96.37     654.00
 96.47     710.76
 96.57     771.07
 96.67     864.79
 96.77     865.16
 96.87     923.00
 96.97    1048.00
 97.07    1059.00
 97.17    1246.99
 97.27    1252.00
 97.37    1354.67
 97.47    1360.17
 97.57    1459.00
 97.67    1467.00
 97.77    1473.13
 97.87    1413.00
 97.97    1312.43
 98.07    1312.00
 98.17    1267.00
 98.27    1195.00
 98.37    1151.00
 98.47    1031.00
 98.57     908.00
 98.67     897.81
 98.77     814.00
 98.87     784.00
 98.97     797.00
 99.07     786.88
 99.17     834.00
 99.27     798.79
 99.37     894.79
 99.47     869.00
 99.57    1020.15
 99.67    1015.00
 99.77    1124.00
 99.87    1227.00
 99.97    1374.13
100.07    1472.00
100.17    1588.00
100.27    1675.00
100.37    1796.00
100.47    1965.00
100.57    1980.00
100.67    2110.00
100.77    1999.48
100.87    2163.71
100.97    2167.93
101.07    2082.00
101.17    2091.00
101.27    1923.71
101.37    1886.00
101.47    1858.18
101.57    1755.43
101.67    1620.00
101.77    1494.00
101.87    1401.00
101.97    1354.00
102.07    1275.00
102.17    1252.00
102.27    1186.00
102.37    1134.00
102.47    1192.70
102.57    1088.29
102.67    1105.71
102.77    1086.00
102.87    1053.00
102.97    1065.55
103.07    1031.25
103.17     925.00
103.27     950.15
103.37     875.59
103.47     841.00
103.57     784.00
103.67     814.00
103.77     704.31
103.87     683.00
103.97     692.00
104.07     571.00
104.17     609.00
104.27     546.69
104.37     575.63
104.47     528.00
104.57     589.00
104.67     518.00
104.77     528.00
104.87     504.00
104.97     544.00
105.07     517.38
105.17     554.00
105.27     532.00
105.37     520.00
105.47     513.00
105.57     498.00
105.67     571.00
105.77     514.00
105.87     492.49
105.97     565.00
106.07     581.00
106.17     578.00
106.27     558.00
106.37     579.14
106.47     591.00
106.57     568.36
106.67     583.00
106.77     612.00
106.87     577.00
106.97     639.00
107.07     647.00
107.17     654.67
107.27     663.82
107.37     707.25
107.47     684.00
107.57     604.00
107.67     718.00
107.77     712.00
107.87     591.00
107.97     638.01
108.07     701.68
108.17     704.00
108.27     658.00
108.37     654.41
108.47     681.00
108.57     703.00
108.67     650.00
108.77     637.28
108.87     682.00
108.97     722.35
109.07     701.00
109.17     685.00
109.27     627.00
109.37     724.00
109.47     592.00
109.57     649.29
109.67     621.50
109.77     667.00
109.87     636.00
109.97     609.00
110.07     632.00
110.17     588.00
110.27     600.00
110.37     591.00
110.47     570.00
110.57     576.64
110.67     552.00
110.77     579.15
110.87     486.44
110.97     486.23
111.07     534.72
111.17     522.00
111.27     531.00
111.37     540.00
111.47     536.25
111.57     537.71
111.67     548.38
111.77     527.00
111.87     516.00
111.97     561.00
112.07     510.53
112.17     591.00
112.27     552.00
112.37     530.00
112.47     578.95
112.57     560.00
112.67     600.00
112.77     585.00
112.87     604.00
112.97     617.00
113.07     627.72
113.17     646.00
113.27     705.50
113.37     718.00
113.47     723.14
113.57     848.00
113.67     835.07
113.77     843.00
113.87     931.09
113.97     888.66
114.07     942.70
114.17    1000.51
114.27    1168.95
114.37    1234.00
114.47    1213.00
114.57    1309.84
114.67    1456.00
114.77    1475.24
114.87    1729.00
114.97    1820.47
115.07    2021.00
115.17    2269.00
115.27    2616.00
115.37    2656.60
115.47    3038.00
115.57    3340.00
115.67    3693.65
115.77    3989.00
115.87    4402.00
115.97    4526.00
116.07    5129.32
116.17    5353.00
116.27    5973.00
116.37    6373.04
116.47    6505.00
116.57    6756.00
116.67    7043.00
116.77    7200.00
116.87    7085.00
116.97    7013.27
117.07    7201.08
117.17    7099.00
117.27    6525.38
117.37    6272.00
117.47    5992.19
117.57    5488.00
117.67    5150.00
117.77    4877.78
117.87    4242.48
117.97    3902.23
118.07    3785.00
118.17    3326.00
118.27    2974.00
118.37    2594.00
118.47    2349.00
118.57    1987.58
118.67    1798.34
118.77    1554.00
118.87    1414.00
118.97    1185.00
119.07    1073.00
119.17     986.00
119.27     969.00
119.37     849.00
119.47     792.86
119.57     780.00
119.67     705.00
119.77     735.00
119.87     691.91
119.97     651.00
120.07     650.00
120.17     658.00
120.27     597.00
120.37     613.00
120.47     572.00
120.57     591.24
120.67     560.34
120.77     542.00
120.87     511.00
120.97     560.00
121.07     601.59
121.17     528.00
121.27     545.00
121.37     531.00
121.47     558.00
121.57     568.00
121.67     556.10
121.77     541.00
121.87     572.00
121.97     575.00
122.07     556.46
122.17     562.00
122.27     555.00
122.37     591.00
122.47     599.00
122.57     624.00
122.67     599.40
122.77     625.00
122.87     580.37
122.97     634.00
123.07     635.00
123.17     638.00
123.27     636.72
123.37     638.76
123.47     661.00
123.57     624.00
123.67     601.00
123.77     648.00
123.87     616.88
123.97     613.00
124.07     657.00
124.17     614.00
124.27     600.00
124.37     600.31
124.47     620.00
124.57     615.00
124.67     617.83
124.77     621.00
124.87     577.00
124.97     606.00
