  9.97     571.00
 10.07     658.00
 10.17     563.00
 10.27     562.00
 10.37     563.00
 10.47     546.00
 10.57     585.45
 10.67     592.00
 10.77     576.00
 10.87     616.84
 10.97     555.54
 11.07     577.00
 11.17     564.00
 11.27     580.00
 11.37     603.00
 11.47     572.10
 11.57     643.00
 11.67     627.00
 11.77     592.40
 11.87     648.00
 11.97     644.89
 12.07     656.00
 12.17     677.80
 12.27     742.00
 12.37     656.00
 12.47     658.05
 12.57     573.00
 12.67     620.00
 12.77     588.00
 12.87     567.00
 12.97     554.00
 13.07     597.00
 13.17     587.00
 13.27     568.00
 13.37     607.79
 13.47     528.40
 13.57     555.00
 13.67     541.00
 13.77     540.00
 13.87     570.00
 13.97     547.78
 14.07     577.00
 14.17     553.54
 14.27     550.92
 14.37     549.00
 14.47     526.00
 14.57     583.00
 14.67     585.00
 14.77     544.00
 14.87     573.35
 14.97     568.00
 15.07     516.00
 15.17     568.00
 15.27     605.33
 15.37     610.96
 15.47     589.00
 15.57     560.03
 15.67     560.00
 15.77     524.97
 15.87     529.29
 15.97     584.74
 16.07     548.00
 16.17     524.30
 16.27     581.00
 16.37     522.72
 16.47     570.00
 16.57     582.00
 16.67     575.33
 16.77     628.00
 16.87     541.00
 16.97     553.45
 17.07     608.00
 17.17     547.00
 17.27     558.00
 17.37     546.00
 17.47     581.17
 17.57     503.00
 17.67     584.89
 17.77     535.00
 17.87     604.61
 17.97     517.00
 18.07     564.79
 18.17     558.00
 18.27     560.00
 18.37     581.00
 18.47     593.00
 18.57     531.00
 18.67     578.00
 18.77     529.00
 18.87     575.97
 18.97     559.00
 19.07     507.00
 19.17     581.00
 19.27     564.00
 19.37     532.00
 19.47     544.00
 19.57     589.00
 19.67     559.68
 19.77     557.00
 19.87     555.48
 19.97     541.00
 20.07     575.00
 20.17     565.00
 20.27     607.00
 20.37     533.00
 20.47     541.00
 20.57     547.00
 20.67     603.85
 20.77     572.00
 20.87     555.00
 20.97     519.00
 21.07     558.00
 21.17     551.00
 21.27     518.00
 21.37     554.66
 21.47     582.42
 21.57     532.37
 21.67     539.51
 21.77     550.96
 21.87     557.34
 21.97     551.58
 22.07     570.38
 22.17     525.00
 22.27     571.88
 22.37     584.00
 22.47     526.00
 22.57     574.00
 22.67     548.51
 22.77     556.00
 22.87     594.51
 22.97     544.00
 23.07     579.00
 23.17     526.00
 23.27     545.00
 23.37     588.00
 23.47     514.00
 23.57     530.00
 23.67     582.01
 23.77     562.00
 23.87     538.52
 23.97     514.23
 24.07     542.00
 24.17     580.12
 24.27     520.36
 24.37     560.57
 24.47     616.31
 24.57     560.64
 24.67     657.00
 24.77     643.00
 24.87     567.00
 24.97     580.00
 25.07     560.00
 25.17     547.00
 25.27     574.62
 25.37     573.00
 25.47     553.00
 25.57     557.00
 25.67     568.00
 25.77     563.00
 25.87     530.00
 25.97     585.80
 26.07     532.00
 26.17     526.37
 26.27     583.18
 26.37     576.06
 26.47     564.00
 26.57     496.35
 26.67     545.00
 26.77     534.43
 26.87     561.00
 26.97     521.00
 27.07     535.00
 27.17     565.00
 27.27     590.11
 27.37     579.00
 27.47     595.00
 27.57     577.02
 27.67     553.00
 27.77     582.00
 27.87     591.95
 27.97     755.00
 28.07     813.00
 28.17     901.00
 28.27     949.31
 28.37     854.85
 28.47     773.29
 28.57     739.00
 28.67     699.66
 28.77     687.08
 28.87     820.00
 28.97     808.00
 29.07     815.17
 29.17     762.92
 29.27     598.31
 29.37     612.62
 29.47     629.00
 29.57     583.00
 29.67     584.00
 29.77     542.00
 29.87     520.44
 29.97     583.84
 30.07     605.00
 30.17     575.73
 30.27     543.00
 30.37     590.00
 30.47     550.00
 30.57     550.00
 30.67     526.34
 30.77     536.64
 30.87     626.32
 30.97     647.00
 31.07     550.00
 31.17     572.00
 31.27     525.74
 31.37     550.00
 31.47     573.00
 31.57     535.00
 31.67     541.00
 31.77     517.84
 31.87     516.00
 31.97     513.00
 32.07     514.77
 32.17     584.00
 32.27     547.00
 32.37     577.00
 32.47     538.23
 32.57     527.00
 32.67     499.43
 32.77     559.00
 32.87     555.00
 32.97     497.96
 33.07     536.10
 33.17     520.00
 33.27     513.00
 33.37     513.00
 33.47     564.00
 33.57     627.00
 33.67     667.00
 33.77     792.00
 33.87     846.57
 33.97    1015.00
 34.07    1091.14
 34.17    1017.99
 34.27     884.00
 34.37     758.00
 34.47     678.05
 34.57     540.00
 34.67     529.00
 34.77     529.00
 34.87     569.25
 34.97     482.00
 35.07     503.00
 35.17     488.89
 35.27     529.00
 35.37     528.00
 35.47     460.00
 35.57     502.00
 35.67     495.17
 35.77     555.00
 35.87     559.57
 35.97     558.60
 36.07     496.00
 36.17     499.73
 36.27     510.00
 36.37     513.00
 36.47     518.33
 36.57     528.00
 36.67     510.00
 36.77     489.00
 36.87     523.85
 36.97     508.54
 37.07     537.00
 37.17     510.00
 37.27     492.00
 37.37     503.00
 37.47     488.00
 37.57     514.00
 37.67     535.88
 37.77     542.15
 37.87     514.00
 37.97     565.22
 38.07     491.00
 38.17     483.02
 38.27     554.72
 38.37     474.48
 38.47     499.00
 38.57     543.86
 38.67     502.71
 38.77     518.17
 38.87     507.00
 38.97     526.00
 39.07     535.07
 39.17     519.00
 39.27     508.00
 39.37     523.44
 39.47     525.09
 39.57     465.01
 39.67     510.00
 39.77     491.00
 39.87     501.00
 39.97     528.00
 40.07     484.83
 40.17     529.76
 40.27     515.41
 40.37     496.00
 40.47     553.20
 40.57     505.00
 40.67     501.84
 40.77     524.00
 40.87     520.74
 40.97     493.00
 41.07     488.00
 41.17     479.00
 41.27     466.00
 41.37     473.38
 41.47     475.93
 41.57     505.00
 41.67     507.00
 41.77     482.00
 41.87     545.43
 41.97     526.00
 42.07     557.11
 42.17     523.00
 42.27     530.00
 42.37     603.54
 42.47     544.00
 42.57     639.00
 42.67     661.67
 42.77     614.00
 42.87     557.00
 42.97     608.90
 43.07     558.00
 43.17     512.00
 43.27     514.00
 43.37     491.00
 43.47     477.00
 43.57     462.00
 43.67     527.00
 43.77     493.11
 43.87     472.00
 43.97     498.00
 44.07     515.00
 44.17     492.00
 44.27     527.00
 44.37     491.00
 44.47     525.18
 44.57     523.00
 44.67     494.00
 44.77     528.10
 44.87     511.00
 44.97     521.56
 45.07     537.00
 45.17     468.00
 45.27     508.00
 45.37     511.00
 45.47     520.98
 45.57     505.87
 45.67     468.00
 45.77     541.00
 45.87     548.00
 45.97     545.67
 46.07     516.00
 46.17     500.00
 46.27     539.00
 46.37     519.00
 46.47     496.00
 46.57     523.00
 46.67     531.00
 46.77     546.00
 46.87     553.19
 46.97     492.00
 47.07     504.00
 47.17     498.80
 47.27     533.00
 47.37     497.30
 47.47     565.00
 47.57     543.00
 47.67     552.00
 47.77     555.56
 47.87     607.00
 47.97     564.00
 48.07     596.14
 48.17     594.00
 48.27     569.00
 48.37     557.90
 48.47     514.80
 48.57     557.00
 48.67     533.58
 48.77     561.00
 48.87     525.00
 48.97     584.00
 49.07     544.00
 49.17     541.00
 49.27     573.00
 49.37     607.00
 49.47     615.32
 49.57     733.00
 49.67     920.00
 49.77    1157.00
 49.87    1348.10
 49.97    1768.44
 50.07    2138.21
 50.17    2411.00
 50.27    2504.55
 50.37    2158.00
 50.47    1902.00
 50.57    1422.64
 50.67    1082.76
 50.77     826.00
 50.87     778.58
 50.97     695.00
 51.07     702.00
 51.17     634.00
 51.27     608.00
 51.37     563.00
 51.47     570.00
 51.57     593.54
 51.67     560.00
 51.77     564.34
 51.87     514.08
 51.97     527.00
 52.07     526.35
 52.17     547.46
 52.27     552.00
 52.37     496.24
 52.47     539.00
 52.57     569.00
 52.67     547.00
 52.77     550.60
 52.87     689.91
 52.97     709.29
 53.07     798.00
 53.17     946.00
 53.27    1065.00
 53.37    1136.00
 53.47    1198.23
 53.57    1169.00
 53.67    1060.81
 53.77     982.00
 53.87     869.00
 53.97     755.00
 54.07     635.00
 54.17     619.00
 54.27     621.33
 54.37     589.00
 54.47     546.00
 54.57     588.51
 54.67     546.00
 54.77     535.41
 54.87     563.00
 54.97     585.84
 55.07     559.99
 55.17     560.00
 55.27     568.00
 55.37     561.00
 55.47     568.68
 55.57     542.39
 55.67     592.00
 55.77     593.00
 55.87     590.00
 55.97     675.81
 56.07     674.00
 56.17     803.87
 56.27     922.97
 56.37    1216.00
 56.47    1489.04
 56.57    1867.00
 56.67    2169.00
 56.77    2447.00
 56.87    2595.32
 56.97    2547.00
 57.07    2340.00
 57.17    2057.01
 57.27    1735.90
 57.37    1296.00
 57.47    1048.00
 57.57     870.00
 57.67     770.62
 57.77     759.00
 57.87     720.00
 57.97     696.13
 58.07     671.00
 58.17     670.86
 58.27     716.00
 58.37     799.00
 58.47     929.14
 58.57    1066.00
 58.67    1077.00
 58.77    1225.00
 58.87    1290.00
 58.97    1378.00
 59.07    1436.00
 59.17    1418.00
 59.27    1373.00
 59.37    1279.51
 59.47    1113.59
 59.57    1138.12
 59.67    1151.00
 59.77    1112.76
 59.87    1223.52
 59.97    1307.83
 60.07    1457.46
 60.17    1578.24
 60.27    1551.06
 60.37    1505.06
 60.47    1359.00
 60.57    1239.94
 60.67    1090.00
 60.77     949.00
 60.87     783.00
 60.97     672.88
 61.07     668.00
 61.17     611.98
 61.27     648.80
 61.37     681.63
 61.47     742.00
 61.57     775.00
 61.67     830.00
 61.77     956.61
 61.87    1122.04
 61.97    1254.00
 62.07    1357.00
 62.17    1489.06
 62.27    1479.28
 62.37    1345.10
 62.47    1219.00
 62.57    1021.00
 62.67     923.00
 62.77     786.00
 62.87     769.03
 62.97     685.66
 63.07     604.00
 63.17     635.96
 63.27     546.05
 63.37     560.00
 63.47     519.14
 63.57     617.94
 63.67     585.00
 63.77     647.39
 63.87     682.00
 63.97     643.55
 64.07     757.00
 64.17     793.00
 64.27     791.16
 64.37     911.00
 64.47     962.00
 64.57     987.00
 64.67     999.00
 64.77    1062.46
 64.87     992.00
 64.97     939.93
 65.07     885.41
 65.17     814.15
 65.27     721.00
 65.37     728.92
 65.47     683.00
 65.57     619.00
 65.67     599.25
 65.77     587.49
 65.87     584.31
 65.97     575.00
 66.07     562.00
 66.17     571.65
 66.27     603.68
 66.37     592.00
 66.47     512.00
 66.57     548.00
 66.67     578.00
 66.77     591.08
 66.87     592.74
 66.97     661.16
 67.07     697.82
 67.17     668.81
 67.27     801.00
 67.37     900.76
 67.47    1157.10
 67.57    1272.06
 67.67    1569.00
 67.77    1837.01
 67.87    2066.00
 67.97    2357.00
 68.07    2443.00
 68.17    2385.41
 68.27    2244.00
 68.37    2094.32
 68.47    1793.00
 68.57    1555.00
 68.67    1310.00
 68.77    1040.00
 68.87     956.04
 68.97     816.67
 69.07     716.73
 69.17     680.00
 69.27     660.51
 69.37     553.00
 69.47     563.84
 69.57     577.00
 69.67     593.28
 69.77     541.00
 69.87     552.00
 69.97     515.00
 70.07     572.00
 70.17     571.66
 70.27     558.00
 70.37     582.78
 70.47     545.45
 70.57     583.00
 70.67     628.00
 70.77     613.00
 70.87     593.00
 70.97     598.59
 71.07     710.00
 71.17     774.00
 71.27     879.00
 71.37    1011.77
 71.47    1103.00
 71.57    1278.00
 71.67    1425.20
 71.77    1565.30
 71.87    1892.00
 71.97    1994.00
 72.07    1847.88
 72.17    1897.00
 72.27    1795.55
 72.37    1626.00
 72.47    1476.00
 72.57    1291.83
 72.67    1060.00
 72.77     980.76
 72.87     847.00
 72.97     812.47
 73.07     741.00
 73.17     703.00
 73.27     663.00
 73.37     600.00
 73.47     624.00
 73.57     613.00
 73.67     663.15
 73.77     550.00
 73.87     561.31
 73.97     585.00
 74.07     597.00
 74.17     613.00
 74.27     543.43
 74.37     590.00
 74.47     615.00
 74.57     527.89
 74.67     644.00
 74.77     573.00
 74.87     602.00
 74.97     638.00
 75.07     603.00
 75.17     599.37
 75.27     535.00
 75.37     593.00
 75.47     529.80
 75.57     565.83
 75.67     540.29
 75.77     541.05
 75.87     615.17
 75.97     589.00
 76.07     631.00
 76.17     609.87
 76.27     704.00
 76.37     705.89
 76.47     677.00
 76.57     708.00
 76.67     661.00
 76.77     694.00
 76.87     690.00
 76.97     625.26
 77.07     632.00
 77.17     634.05
 77.27     523.00
 77.37     567.00
 77.47     568.00
 77.57     528.00
 77.67     512.00
 77.77     507.00
 77.87     530.90
 77.97     504.00
 78.07     528.91
 78.17     497.31
 78.27     499.55
 78.37     508.00
 78.47     514.00
 78.57     521.31
 78.67     527.00
 78.77     531.00
 78.87     530.00
 78.97     552.78
 79.07     543.00
 79.17     497.07
 79.27     495.45
 79.37     529.00
 79.47     568.15
 79.57     539.00
 79.67     536.00
 79.77     537.00
 79.87     511.50
 79.97     554.00
 80.07     516.00
 80.17     555.00
 80.27     547.00
 80.37     593.00
 80.47     583.00
 80.57     660.50
 80.67     680.00
 80.77     648.00
 80.87     695.67
 80.97     657.00
 81.07     747.17
 81.17     709.46
 81.27     801.00
 81.37     688.41
 81.47     729.00
 81.57     744.00
 81.67     697.72
 81.77     692.32
 81.87     700.00
 81.97     683.00
 82.07     701.25
 82.17     613.08
 82.27     628.00
 82.37     616.99
 82.47     564.44
 82.57     569.00
 82.67     566.00
 82.77     550.50
 82.87     562.58
 82.97     561.76
 83.07     586.00
 83.17     594.89
 83.27     576.22
 83.37     566.95
 83.47     569.00
 83.57     560.00
 83.67     607.00
 83.77     546.00
 83.87     585.00
 83.97     521.00
 84.07     572.00
 84.17     524.00
 84.27     574.00
 84.37     549.00
 84.47     515.74
 84.57     590.00
 84.67     564.00
 84.77     572.00
 84.87     590.24
 84.97     579.00
 85.07     539.00
 85.17     501.12
 85.27     543.00
 85.37     506.00
 85.47     587.00
 85.57     537.52
 85.67     567.00
 85.77     510.00
 85.87     492.38
 85.97     519.07
 86.07     508.00
 86.17     540.67
 86.27     553.00
 86.37     530.77
 86.47     536.16
 86.57     572.19
 86.67     595.71
 86.77     590.00
 86.87     613.00
 86.97     563.00
 87.07     607.00
 87.17     634.97
 87.27     655.00
 87.37     640.00
 87.47     600.76
 87.57     594.42
 87.67     610.05
 87.77     653.00
 87.87     621.00
 87.97     558.96
 88.07     562.00
 88.17     632.30
 88.27     581.00
 88.37     558.19
 88.47     592.00
 88.57     575.00
 88.67     577.09
 88.77     599.13
 88.87     612.00
 88.97     604.00
 89.07     636.62
 89.17     591.04
 89.27     623.12
 89.37     642.55
 89.47     641.00
 89.57     562.00
 89.67     603.00
 89.77     565.00
 89.87     556.30
 89.97     553.00
 90.07     597.34
 90.17     538.68
 90.27     554.00
 90.37     500.00
 90.47     505.00
 90.57     528.00
 90.67     552.00
 90.77     542.00
 90.87     514.82
 90.97     530.00
 91.07     539.05
 91.17     572.00
 91.27     535.99
 91.37     483.00
 91.47     492.00
 91.57     538.00
 91.67     539.00
 91.77     529.00
 91.87     591.85
 91.97     562.00
 92.07     582.65
 92.17     570.00
 92.27     608.00
 92.37     609.56
 92.47     665.00
 92.57     643.53
 92.67     709.00
 92.77     688.00
 92.87     704.00
 92.97     691.00
 93.07     736.86
 93.17     802.64
 93.27     756.56
 93.37     799.00
 93.47     734.10
 93.57     780.34
 93.67     807.00
 93.77     879.00
 93.87     885.00
 93.97     876.20
 94.07     844.00
 94.17     876.00
 94.27     829.00
 94.37     853.00
 94.47     920.89
 94.57     897.00
 94.67     925.00
 94.77     839.25
 94.87     945.00
 94.97     913.04
 95.07     906.00
 95.17     895.00
 95.27     863.42
 95.37     834.00
 95.47     785.00
 95.57     744.61
 95.67     735.51
 95.77     715.00
 95.87     718.00
 95.97     685.00
 96.07     666.00
 96.17     766.00
 96.27     736.00
 96.37     778.46
 96.47     790.74
 96.57     884.00
 96.67     916.00
 96.77    1064.00
 96.87    1053.00
 96.97    1104.00
 97.07    1259.00
 97.17    1338.00
 97.27    1404.00
 97.37    1343.74
 97.47    1372.00
 97.57    1360.07
 97.67    1457.00
 97.77    1415.05
 97.87    1299.20
 97.97    1305.00
 98.07    1225.00
 98.17    1120.00
 98.27    1056.00
 98.37    1070.00
 98.47    1003.00
 98.57     973.07
 98.67     800.00
 98.77     805.18
 98.87     816.76
 98.97     835.00
 99.07     848.00
 99.17     857.00
 99.27     958.00
 99.37     991.00
 99.47    1030.00
 99.57    1156.00
 99.67    1208.88
 99.77    1303.00
 99.87    1437.00
 99.97    1518.00
100.07    1700.00
100.17    1688.52
100.27    1906.00
100.37    1943.00
100.47    1984.00
100.57    2044.00
100.67    2085.00
100.77    1985.57
100.87    2090.00
100.97    1967.00
101.07    1831.86
101.17    1866.28
101.27    1707.91
101.37    1615.00
101.47    1566.00
101.57    1567.00
101.67    1499.90
101.77    1316.00
101.87    1276.00
101.97    1179.20
102.07    1225.00
102.17    1230.00
102.27    1120.10
102.37    1107.00
102.47    1094.00
102.57    1041.00
102.67    1135.00
102.77    1014.06
102.87    1064.85
102.97     968.00
103.07     924.00
103.17     937.49
103.27     875.43
103.37     795.56
103.47     762.00
103.57     752.00
103.67     723.97
103.77     693.00
103.87     665.00
103.97     615.03
104.07     627.00
104.17     586.00
104.27     599.00
104.37     553.00
104.47     559.71
104.57     546.00
104.67     510.56
104.77     561.00
104.87     522.03
104.97     575.00
105.07     498.37
105.17     532.00
105.27     564.00
105.37     583.00
105.47     536.00
105.57     529.00
105.67     578.00
105.77     582.00
105.87     569.00
105.97     578.55
106.07     614.59
106.17     640.00
106.27     627.00
106.37     612.00
106.47     632.21
106.57     646.73
106.67     641.00
106.77     673.00
106.87     671.00
106.97     638.00
107.07     655.00
107.17     688.00
107.27     711.98
107.37     698.00
107.47     666.00
107.57     718.03
107.67     682.88
107.77     699.00
107.87     670.67
107.97     693.00
108.07     693.00
108.17     689.00
108.27     686.00
108.37     672.00
108.47     656.38
108.57     652.00
108.67     663.00
108.77     729.17
108.87     676.00
108.97     681.00
109.07     703.99
109.17     707.00
109.27     675.45
109.37     630.77
109.47     647.00
109.57     675.00
109.67     660.00
109.77     644.04
109.87     623.00
109.97     548.57
110.07     544.23
110.17     594.27
110.27     605.00
110.37     548.20
110.47     583.00
110.57     582.81
110.67     518.09
110.77     528.00
110.87     555.70
110.97     582.00
111.07     570.00
111.17     559.00
111.27     551.72
111.37     561.00
111.47     547.00
111.57     517.00
111.67     586.00
111.77     554.91
111.87     583.45
111.97     533.63
112.07     621.48
112.17     556.00
112.27     601.00
112.37     586.00
112.47     597.06
112.57     554.00
112.67     628.00
112.77     643.00
112.87     620.00
112.97     639.00
113.07     678.80
113.17     656.00
113.27     678.00
113.37     751.46
113.47     663.00
113.57     768.53
113.67     728.00
113.77     818.00
113.87     823.00
113.97     949.44
114.07     938.00
114.17     977.40
114.27    1013.00
114.37    1103.00
114.47    1296.00
114.57    1399.58
114.67    1543.00
114.77    1670.00
114.87    1869.00
114.97    2065.00
115.07    2284.64
115.17    2376.59
115.27    3015.00
115.37    3254.00
115.47    3537.00
115.57    3821.61
115.67    4203.00
115.77    4613.00
115.87    4896.00
115.97    5372.00
116.07    5716.00
116.17    5849.14
116.27    6353.00
116.37    6563.00
116.47    6489.43
116.57    6718.00
116.67    6882.00
116.77    6833.00
116.87    6771.00
116.97    6398.00
117.07    6180.16
117.17    5996.00
117.27    5357.00
117.37    5190.00
117.47    4935.60
117.57    4738.89
117.67    4262.18
117.77    3799.00
117.87    3474.57
117.97    3224.00
118.07    2797.81
118.17    2483.00
118.27    2276.00
118.37    1860.00
118.47    1722.00
118.57    1667.46
118.67    1403.00
118.77    1226.00
118.87    1143.00
118.97     978.00
119.07     955.00
119.17     866.83
119.27     820.00
119.37     848.40
119.47     726.00
119.57     689.00
119.67     672.82
119.77     636.00
119.87     647.00
119.97     616.12
120.07     670.91
120.17     627.00
120.27     605.00
120.37     573.00
120.47     566.00
120.57     602.78
120.67     568.00
120.77     544.15
120.87     552.48
120.97     555.00
121.07     593.00
121.17     589.00
121.27     572.32
121.37     558.95
121.47     597.00
121.57     599.00
121.67     613.09
121.77     604.00
121.87     601.27
121.97     620.00
122.07     610.00
122.17     635.00
122.27     652.00
122.37     648.00
122.47     638.84
122.57     601.00
122.67     670.62
122.77     633.00
122.87     607.04
122.97     670.04
123.07     604.66
123.17     626.00
123.27     626.00
123.37     614.64
123.47     676.07
123.57     623.00
123.67     590.38
123.77     616.79
123.87     604.00
123.97     656.00
124.07     611.00
124.17     581.47
124.27     631.00
124.37     660.00
124.47     607.00
124.57     589.00
124.67     625.00
124.77     608.00
124.87     623.37
124.97     607.00
