  9.97     631.00
 10.07     571.00
 10.17     575.47
 10.27     548.85
 10.37     614.00
 10.47     588.00
 10.57     576.38
 10.67     568.00
 10.77     523.94
 10.87     560.28
 10.97     608.00
 11.07     578.00
 11.17     533.58
 11.27     573.00
 11.37     604.00
 11.47     596.00
 11.57     560.00
 11.67     647.00
 11.77     547.69
 11.87     560.91
 11.97     693.00
 12.07     670.80
 12.17     720.00
 12.27     655.00
 12.37     610.00
 12.47     637.70
 12.57     630.00
 12.67     580.00
 12.77     582.00
 12.87     560.50
 12.97     559.00
 13.07     579.00
 13.17     545.75
 13.27     583.12
 13.37     526.91
 13.47     556.00
 13.57     607.14
 13.67     597.00
 13.77     537.47
 13.87     575.00
 13.97     557.75
 14.07     583.00
 14.17     569.07
 14.27     591.67
 14.37     558.00
 14.47     563.00
 14.57     612.00
 14.67     566.00
 14.77     589.00
 14.87     572.28
 14.97     548.00
 15.07     597.57
 15.17     564.83
 15.27     549.88
 15.37     552.00
 15.47     550.24
 15.57     581.08
 15.67     538.00
 15.77     561.00
 15.87     562.00
 15.97     551.00
 16.07     562.44
 16.17     558.00
 16.27     578.00
 16.37     533.37
 16.47     522.86
 16.57     582.00
 16.67     569.52
 16.77     507.00
 16.87     546.17
 16.97     544.00
 17.07     568.00
 17.17     571.00
 17.27     517.00
 17.37     582.00
 17.47     555.88
 17.57     576.00
 17.67     585.00
 17.77     530.85
 17.87     533.00
 17.97     551.26
 18.07     584.68
 18.17     572.00
 18.27     558.65
 18.37     530.00
 18.47     569.00
 18.57     581.00
 18.67     586.18
 18.77     571.28
 18.87     534.00
 18.97     535.22
 19.07     567.12
 19.17     508.96
 19.27     550.00
 19.37     592.00
 19.47     535.00
 19.57     517.00
 19.67     555.35
 19.77     510.00
 19.87     526.00
 19.97     523.00
 20.07     566.77
 20.17     519.00
 20.27     594.09
 20.37     567.00
 20.47     515.00
 20.57     554.00
 20.67     542.00
 20.77     533.00
 20.87     541.00
 20.97     575.00
 21.07     549.00
 21.17     511.00
 21.27     556.00
 21.37     538.00
 21.47     552.00
 21.57     577.00
 21.67     549.00
 21.77     534.00
 21.87     552.19
 21.97     546.00
 22.07     576.86
 22.17     595.00
 22.27     547.01
 22.37     511.00
 22.47     564.00
 22.57     517.00
 22.67     520.48
 22.77     534.50
 22.87     568.00
 22.97     558.00
 23.07     569.00
 23.17     561.00
 23.27     537.00
 23.37     566.88
 23.47     507.00
 23.57     554.00
 23.67     576.00
 23.77     531.35
 23.87     587.07
 23.97     526.92
 24.07     544.50
 24.17     546.57
 24.27     565.00
 24.37     564.65
 24.47     559.40
 24.57     548.32
 24.67     593.89
 24.77     632.77
 24.87     592.00
 24.97     557.00
 25.07     582.25
 25.17     539.00
 25.27     543.85
 25.37     575.26
 25.47     543.00
 25.57     565.46
 25.67     561.00
 25.77     552.00
 25.87     557.00
 25.97     576.93
 26.07     513.19
 26.17     575.25
 26.27     501.52
 26.37     519.54
 26.47     521.32
 26.57     562.00
 26.67     510.89
 26.77     563.00
 26.87     534.67
 26.97     543.00
 27.07     518.00
 27.17     552.00
 27.27     530.00
 27.37     557.00
 27.47     528.00
 27.57     565.00
 27.67     522.00
 27.77     520.12
 27.87     611.00
 27.97     628.18
 28.07     782.00
 28.17     904.00
 28.27     967.73
 28.37     960.00
 28.47     796.00
 28.57     715.21
 28.67     710.55
 28.77     726.00
 28.87     775.22
 28.97     806.00
 29.07     831.03
 29.17     698.00
 29.27     616.00
 29.37     626.40
 29.47     569.12
 29.57     571.00
 29.67     577.57
 29.77     569.00
 29.87     593.68
 29.97     595.00
 30.07     556.79
 30.17     545.00
 30.27     581.47
 30.37     575.00
 30.47     563.00
 30.57     553.86
 30.67     576.00
 30.77     607.00
 30.87     631.00
 30.97     644.24
 31.07     600.15
 31.17     566.00
 31.27     585.94
 31.37     590.00
 31.47     511.16
 31.57     551.00
 31.67     554.00
 31.77     550.00
 31.87     550.00
 31.97     481.62
 32.07     522.24
 32.17     556.73
 32.27     562.25
 32.37     539.00
 32.47     495.24
 32.57     541.00
 32.67     540.00
 32.77     532.00
 32.87     550.00
 32.97     544.00
 33.07     530.00
 33.17     563.00
 33.27     514.10
 33.37     497.77
 33.47     571.17
 33.57     617.00
 33.67     640.51
 33.77     734.00
 33.87     935.00
 33.97     984.00
 34.07    1009.93
 34.17     998.00
 34.27     914.00
 34.37     681.00
 34.47     642.00
 34.57     586.00
 34.67     585.17
 34.77     517.00
 34.87     517.87
 34.97     545.95
 35.07     555.00
 35.17     541.00
 35.27     556.18
 35.37     502.88
 35.47     545.00
 35.57     513.00
 35.67     527.22
 35.77     517.00
 35.87     514.60
 35.97     517.00
 36.07     552.02
 36.17     522.02
 36.27     484.70
 36.37     496.00
 36.47     481.52
 36.57     522.33
 36.67     536.00
 36.77     476.21
 36.87     465.58
 36.97     470.76
 37.07     526.10
 37.17     508.14
 37.27     497.00
 37.37     537.30
 37.47     521.00
 37.57     541.00
 37.67     500.00
 37.77     492.00
 37.87     554.64
 37.97     511.00
 38.07     555.17
 38.17     520.00
 38.27     527.00
 38.37     455.00
 38.47     511.00
 38.57     485.00
 38.67     507.00
 38.77     482.35
 38.87     469.00
 38.97     504.00
 39.07     488.00
 39.17     539.00
 39.27     544.54
 39.37     540.31
 39.47     498.39
 39.57     508.00
 39.67     555.00
 39.77     496.00
 39.87     479.00
 39.97     462.11
 40.07     526.00
 40.17     542.18
 40.27     476.00
 40.37     496.00
 40.47     476.00
 40.57     518.00
 40.67     487.00
 40.77     500.00
 40.87     469.00
 40.97     496.00
 41.07     460.00
 41.17     539.62
 41.27     543.94
 41.37     548.77
 41.47     534.55
 41.57     519.00
 41.67     520.00
 41.77     503.00
 41.87     522.00
 41.97     506.00
 42.07     509.00
 42.17     493.00
 42.27     519.00
 42.37     516.00
 42.47     595.00
 42.57     577.00
 42.67     617.61
 42.77     598.00
 42.87     570.00
 42.97     533.28
 43.07     524.00
 43.17     516.00
 43.27     529.00
 43.37     509.29
 43.47     537.00
 43.57     526.66
 43.67     497.00
 43.77     516.37
 43.87     523.61
 43.97     501.91
 44.07     519.83
 44.17     521.00
 44.27     531.00
 44.37     474.00
 44.47     505.00
 44.57     503.00
 44.67     477.00
 44.77     467.11
 44.87     526.00
 44.97     469.03
 45.07     508.48
 45.17     489.00
 45.27     478.04
 45.37     466.25
 45.47     458.18
 45.57     514.00
 45.67     476.23
 45.77     520.43
 45.87     516.00
 45.97     542.02
 46.07     513.00
 46.17     474.00
 46.27     516.00
 46.37     540.00
 46.47     521.46
 46.57     498.00
 46.67     545.00
 46.77     495.00
 46.87     471.13
 46.97     496.00
 47.07     480.99
 47.17     507.00
 47.27     530.00
 47.37     523.00
 47.47     516.00
 47.57     591.00
 47.67     520.60
 47.77     594.00
 47.87     590.00
 47.97     589.00
 48.07     608.00
 48.17     560.00
 48.27     525.00
 48.37     546.00
 48.47     524.00
 48.57     506.00
 48.67     535.00
 48.77     535.95
 48.87     506.00
 48.97     547.00
 49.07     533.00
 49.17     600.68
 49.27     598.59
 49.37     665.00
 49.47     686.86
 49.57     744.00
 49.67     894.09
 49.77    1167.12
 49.87    1423.47
 49.97    1852.43
 50.07    2237.00
 50.17    2458.21
 50.27    2494.00
 50.37    2214.03
 50.47    1745.00
 50.57    1412.00
 50.67    1190.87
 50.77     829.00
 50.87     724.00
 50.97     722.23
 51.07     671.00
 51.17     658.00
 51.27     557.00
 51.37     609.00
 51.47     591.00
 51.57     539.00
 51.67     516.77
 51.77     556.00
 51.87     545.00
 51.97     555.00
 52.07     562.92
 52.17     564.67
 52.27     544.00
 52.37     612.00
 52.47     565.79
 52.57     506.92
 52.67     586.00
 52.77     600.00
 52.87     618.55
 52.97     666.00
 53.07     769.96
 53.17     863.02
 53.27    1069.00
 53.37    1157.57
 53.47    1198.97
 53.57    1161.00
 53.67    1053.00
 53.77     976.00
 53.87     854.44
 53.97     744.00
 54.07     706.00
 54.17     653.00
 54.27     609.00
 54.37     533.02
 54.47     534.88
 54.57     549.00
 54.67     551.00
 54.77     567.00
 54.87     553.00
 54.97     568.00
 55.07     503.92
 55.17     521.86
 55.27     575.00
 55.37     547.36
 55.47     576.34
 55.57     586.00
 55.67     558.58
 55.77     603.00
 55.87     605.00
 55.97     633.00
 56.07     739.70
 56.17     762.87
 56.27     906.00
 56.37    1204.43
 56.47    1404.00
 56.57    1804.82
 56.67    2212.00
 56.77    2448.00
 56.87    2552.37
 56.97    2524.00
 57.07    2272.29
 57.17    2151.00
 57.27    1646.00
 57.37    1295.00
 57.47    1048.00
 57.57     937.44
 57.67     734.57
 57.77     685.00
 57.87     675.08
 57.97     643.06
 58.07     657.38
 58.17     761.00
 58.27     779.00
 58.37     832.00
 58.47     843.00
 58.57    1107.95
 58.67    1114.93
 58.77    1235.00
 58.87    1290.00
 58.97    1462.00
 59.07    1401.85
 59.17    1387.00
 59.27    1396.69
 59.37    1262.76
 59.47    1249.00
 59.57    1112.92
 59.67    1178.00
 59.77    1069.17
 59.87    1269.00
 59.97    1331.10
 60.07    1489.00
 60.17    1523.00
 60.27    1584.00
 60.37    1495.00
 60.47    1414.00
 60.57    1274.00
 60.67    1102.22
 60.77     886.47
 60.87     833.08
 60.97     693.00
 61.07     706.00
 61.17     678.00
 61.27     657.00
 61.37     679.00
 61.47     700.00
 61.57     729.34
 61.67     916.08
 61.77    1031.00
 61.87    1032.00
 61.97    1201.00
 62.07    1355.00
 62.17    1329.00
 62.27    1357.00
 62.37    1350.09
 62.47    1262.91
 62.57    1019.77
 62.67     837.00
 62.77     767.00
 62.87     748.00
 62.97     657.00
 63.07     638.00
 63.17     612.13
 63.27     552.00
 63.37     586.00
 63.47     637.00
 63.57     546.47
 63.67     629.00
 63.77     567.00
 63.87     646.00
 63.97     662.23
 64.07     718.00
 64.17     761.55
 64.27     865.00
 64.37     971.00
 64.47     996.92
 64.57     987.85
 64.67    1012.00
 64.77     991.00
 64.87     992.00
 64.97     933.00
 65.07     833.00
 65.17     759.00
 65.27     723.71
 65.37     630.00
 65.47     644.00
 65.57     659.00
 65.67     616.00
 65.77     592.00
 65.87     556.65
 65.97     570.00
 66.07     531.00
 66.17     553.00
 66.27     577.54
 66.37     602.45
 66.47     532.00
 66.57     525.69
 66.67     572.00
 66.77     568.00
 66.87     565.00
 66.97     588.20
 67.07     638.00
 67.17     729.00
 67.27     787.00
 67.37     915.00
 67.47    1099.00
 67.57    1290.00
 67.67    1643.00
 67.77    1865.45
 67.87    2110.00
 67.97    2235.00
 68.07    2436.00
 68.17    2449.00
 68.27    2244.00
 68.37    2031.88
 68.47    1788.42
 68.57    1603.00
 68.67    1309.57
 68.77    1023.00
 68.87     867.00
 68.97     815.36
 69.07     694.82
 69.17     640.89
 69.27     605.00
 69.37     582.00
 69.47     583.00
 69.57     612.00
 69.67     548.49
 69.77     613.00
 69.87     561.00
 69.97     606.35
 70.07     545.00
 70.17     552.00
 70.27     610.81
 70.37     590.41
 70.47     568.00
 70.57     535.00
 70.67     549.00
 70.77     631.00
 70.87     625.00
 70.97     648.00
 71.07     716.70
 71.17     739.33
 71.27     828.49
 71.37     996.00
 71.47    1113.00
 71.57    1239.00
 71.67    1483.88
 71.77    1663.00
 71.87    1769.00
 71.97    1847.00
 72.07    1873.00
 72.17    1919.00
 72.27    1725.00
 72.37    1637.00
 72.47    1452.00
 72.57    1328.00
 72.67    1088.00
 72.77     997.24
 72.87     843.00
 72.97     775.00
 73.07     754.00
 73.17     728.00
 73.27     632.00
 73.37     653.00
 73.47     615.00
 73.57     620.00
 73.67     617.26
 73.77     643.00
 73.87     564.12
 73.97     551.00
 74.07     563.00
 74.17     629.93
 74.27     599.00
 74.37     577.50
 74.47     639.00
 74.57     646.00
 74.67     571.00
 74.77     615.00
 74.87     617.00
 74.97     544.75
 75.07     559.42
 75.17     601.47
 75.27     598.00
 75.37     511.35
 75.47     569.00
 75.57     549.00
 75.67     568.16
 75.77     576.46
 75.87     553.10
 75.97     636.00
 76.07     619.00
 76.17     619.01
 76.27     709.04
 76.37     669.00
 76.47     685.00
 76.57     669.97
 76.67     662.00
 76.77     646.00
 76.87     633.08
 76.97     616.00
 77.07     630.18
 77.17     601.00
 77.27     553.00
 77.37     614.65
 77.47     522.00
 77.57     520.20
 77.67     498.00
 77.77     512.63
 77.87     502.00
 77.97     542.00
 78.07     509.92
 78.17     540.00
 78.27     543.00
 78.37     491.43
 78.47     550.00
 78.57     517.68
 78.67     566.70
 78.77     545.00
 78.87     483.87
 78.97     476.00
 79.07     494.64
 79.17     556.99
 79.27     506.00
 79.37     528.52
 79.47     547.06
 79.57     526.46
 79.67     515.00
 79.77     524.00
 79.87     558.00
 79.97     590.72
 80.07     550.74
 80.17     580.00
 80.27     532.50
 80.37     630.69
 80.47     581.00
 80.57     580.75
 80.67     636.00
 80.77     662.00
 80.87     642.48
 80.97     634.00
 81.07     664.15
 81.17     737.00
 81.27     770.48
 81.37     729.00
 81.47     695.28
 81.57     726.00
 81.67     725.00
 81.77     770.61
 81.87     700.90
 81.97     713.00
 82.07     673.00
 82.17     635.78
 82.27     633.00
 82.37     654.00
 82.47     573.00
 82.57     621.44
 82.67     545.75
 82.77     562.00
 82.87     585.00
 82.97     564.34
 83.07     548.00
 83.17     590.00
 83.27     580.00
 83.37     528.81
 83.47     576.00
 83.57     566.00
 83.67     545.65
 83.77     588.00
 83.87     579.87
 83.97     532.00
 84.07     603.87
 84.17     597.08
 84.27     608.41
 84.37     528.60
 84.47     581.36
 84.57     511.00
 84.67     545.00
 84.77     567.00
 84.87     533.63
 84.97     533.00
 85.07     540.00
 85.17     550.00
 85.27     549.00
 85.37     564.53
 85.47     517.15
 85.57     570.00
 85.67     571.00
 85.77     582.00
 85.87     525.00
 85.97     556.00
 86.07     497.07
 86.17     510.00
 86.27     506.79
 86.37     561.00
 86.47     582.16
 86.57     571.00
 86.67     585.00
 86.77     586.04
 86.87     637.07
 86.97     570.00
 87.07     633.65
 87.17     623.00
 87.27     664.00
 87.37     647.00
 87.47     665.00
 87.57     694.00
 87.67     641.00
 87.77     644.00
 87.87     599.00
 87.97     631.00
 88.07     626.00
 88.17     541.16
 88.27     585.00
 88.37     591.00
 88.47     607.00
 88.57     611.02
 88.67     526.40
 88.77     543.53
 88.87     591.00
 88.97     631.00
 89.07     598.00
 89.17     579.00
 89.27     581.00
 89.37     579.00
 89.47     609.92
 89.57     571.18
 89.67     593.00
 89.77     557.00
 89.87     506.00
 89.97     552.00
 90.07     530.00
 90.17     524.13
 90.27     516.71
 90.37     491.00
 90.47     543.77
 90.57     510.00
 90.67     560.00
 90.77     519.00
 90.87     546.00
 90.97     537.64
 91.07     529.86
 91.17     552.16
 91.27     550.00
 91.37     490.27
 91.47     531.64
 91.57     561.00
 91.67     548.86
 91.77     532.00
 91.87     546.00
 91.97     580.00
 92.07     535.00
 92.17     572.22
 92.27     622.79
 92.37     627.00
 92.47     622.97
 92.57     616.00
 92.67     613.00
 92.77     674.12
 92.87     738.00
 92.97     749.00
 93.07     748.00
 93.17     729.71
 93.27     806.00
 93.37     817.01
 93.47     799.44
 93.57     762.00
 93.67     859.63
 93.77     840.00
 93.87     821.96
 93.97     835.00
 94.07     871.00
 94.17     849.00
 94.27     839.00
 94.37     821.59
 94.47     877.00
 94.57     873.00
 94.67     896.00
 94.77     948.00
 94.87     863.00
 94.97     879.00
 95.07     858.00
 95.17     886.72
 95.27     849.00
 95.37     801.96
 95.47     805.16
 95.57     781.72
 95.67     737.00
 95.77     712.00
 95.87     718.06
 95.97     699.00
 96.07     724.35
 96.17     710.00
 96.27     746.00
 96.37     694.00
 96.47     868.00
 96.57     887.00
 96.67     950.00
 96.77    1009.00
 96.87    1036.00
 96.97    1153.00
 97.07    1238.00
 97.17    1334.00
 97.27    1347.00
 97.37    1415.00
 97.47    1455.00
 97.57    1483.00
 97.67    1396.00
 97.77    1364.00
 97.87    1339.00
 97.97    1305.00
 98.07    1265.00
 98.17    1180.00
 98.27    1045.00
 98.37    1007.00
 98.47     895.00
 98.57     908.00
 98.67     895.00
 98.77     821.00
 98.87     792.00
 98.97     808.00
 99.07     812.06
 99.17     867.00
 99.27     910.00
 99.37     964.10
 99.47    1007.00
 99.57    1160.65
 99.67    1172.00
 99.77    1265.00
 99.87    1444.00
 99.97    1581.59
100.07    1667.00
100.17    1723.00
100.27    1764.62
100.37    1875.00
100.47    1952.00
100.57    2042.82
100.67    2092.24
100.77    2042.00
100.87    2038.23
100.97    1966.28
101.07    1882.00
101.17    1857.00
101.27    1765.00
101.37    1719.00
101.47    1589.00
101.57    1464.00
101.67    1391.56
101.77    1315.00
101.87    1237.41
101.97    1230.51
102.07    1133.37
102.17    1140.00
102.27    1150.00
102.37    1131.30
102.47    1052.00
102.57    1094.66
102.67    1066.00
102.77     982.24
102.87    1019.47
102.97     899.94
103.07     899.00
103.17     861.00
103.27     851.00
103.37     750.96
103.47     781.00
103.57     769.00
103.67     721.00
103.77     663.20
103.87     658.00
103.97     627.00
104.07     607.00
104.17     591.00
104.27     575.00
104.37     573.00
104.47     517.00
104.57     520.05
104.67     553.00
104.77     554.00
104.87     562.00
104.97     596.00
105.07     560.00
105.17     553.00
105.27     523.00
105.37     583.00
105.47     513.00
105.57     510.21
105.67     542.54
105.77     541.00
105.87     573.82
105.97     559.00
106.07     567.00
106.17     549.00
106.27     625.92
106.37     657.00
106.47     607.00
106.57     592.00
106.67     662.00
106.77     662.00
106.87     703.57
106.97     640.00
107.07     615.00
107.17     676.00
107.27     739.61
107.37     684.29
107.47     659.00
107.57     667.37
107.67     682.00
107.77     738.00
107.87     668.59
107.97     708.30
108.07     667.00
108.17     703.00
108.27     696.37
108.37     679.00
108.47     696.15
108.57     682.00
108.67     700.00
108.77     702.00
108.87     663.00
108.97     691.00
109.07     717.70
109.17     665.00
109.27     696.00
109.37     629.82
109.47     669.00
109.57     633.00
109.67     643.06
109.77     582.00
109.87     608.00
109.97     639.00
110.07     615.00
110.17     573.00
110.27     549.37
110.37     549.00
110.47     575.00
110.57     588.00
110.67     545.40
110.77     561.89
110.87     578.00
110.97     558.00
111.07     446.00
111.17     524.96
111.27     549.00
111.37     518.00
111.47     562.00
111.57     569.00
111.67     576.88
111.77     605.00
111.87     603.75
111.97     541.00
112.07     566.00
112.17     593.00
112.27     583.17
112.37     596.00
112.47     574.00
112.57     568.76
112.67     615.49
112.77     626.00
112.87     621.74
112.97     646.00
113.07     632.45
113.17     683.00
113.27     730.00
113.37     728.00
113.47     734.00
113.57     723.00
113.67     797.00
113.77     775.39
113.87     772.00
113.97     902.00
114.07     893.78
114.17    1012.00
114.27    1099.14
114.37    1167.11
114.47    1286.00
114.57    1304.32
114.67    1522.74
114.77    1600.31
114.87    1907.00
114.97    2170.00
115.07    2145.47
115.17    2447.38
115.27    2921.00
115.37    3076.05
115.47    3491.00
115.57    3930.00
115.67    4113.69
115.77    4492.00
115.87    4884.00
115.97    5323.57
116.07    5600.00
116.17    5858.76
116.27    6122.25
116.37    6657.00
116.47    6908.00
116.57    6833.43
116.67    6885.00
116.77    6723.88
116.87    6757.00
116.97    6452.64
117.07    6460.88
117.17    5944.00
117.27    5427.00
117.37    5192.00
117.47    4867.00
117.57    4758.10
117.67    4267.00
117.77    3880.00
117.87    3479.00
117.97    3198.00
118.07    2890.00
118.17    2467.00
118.27    2231.00
118.37    1936.41
118.47    1732.00
118.57    1597.00
118.67    1360.00
118.77    1272.00
118.87    1152.43
118.97    1074.69
119.07     951.00
119.17     900.00
119.27     827.00
119.37     779.00
119.47     736.00
119.57     762.11
119.67     668.00
119.77     645.00
119.87     655.00
119.97     648.00
120.07     603.00
120.17     613.00
120.27     591.00
120.37     594.74
120.47     636.17
120.57     570.00
120.67     559.00
120.77     618.22
120.87     603.13
120.97     546.91
121.07     538.00
121.17     551.36
121.27     622.00
121.37     582.00
121.47     561.14
121.57     578.00
121.67     607.00
121.77     611.00
121.87     561.48
121.97     589.00
122.07     655.92
122.17     598.00
122.27     567.88
122.37     614.00
122.47     599.02
122.57     599.38
122.67     622.00
122.77     677.44
122.87     598.67
122.97     679.00
123.07     641.00
123.17     664.00
123.27     620.25
123.37     631.00
123.47     584.29
123.57     631.05
123.67     671.00
123.77     609.00
123.87     577.84
123.97     594.42
124.07     658.64
124.17     647.06
124.27     605.00
124.37     648.34
124.47     636.00
124.57     594.20
124.67     572.93
124.77     592.00
124.87     581.00
124.97     597.00
