  9.97     563.96
 10.07     600.00
 10.17     577.00
 10.27     628.00
 10.37     573.92
 10.47     613.00
 10.57     586.00
 10.67     588.00
 10.77     597.56
 10.87     555.73
 10.97     568.00
 11.07     566.00
 11.17     612.00
 11.27     623.00
 11.37     592.00
 11.47     587.00
 11.57     594.00
 11.67     676.00
 11.77     680.00
 11.87     655.00
 11.97     642.00
 12.07     682.00
 12.17     622.00
 12.27     755.21
 12.37     621.00
 12.47     671.64
 12.57     600.00
 12.67     574.00
 12.77     598.00
 12.87     537.00
 12.97     542.00
 13.07     608.00
 13.17     549.00
 13.27     533.00
 13.37     556.97
 13.47     509.00
 13.57     555.84
 13.67     584.00
 13.77     543.00
 13.87     566.86
 13.97     580.82
 14.07     549.85
 14.17     542.00
 14.27     595.00
 14.37     588.30
 14.47     578.00
 14.57     579.00
 14.67     582.64
 14.77     587.62
 14.87     592.00
 14.97     538.23
 15.07     598.00
 15.17     554.00
 15.27     571.00
 15.37     541.00
 15.47     542.68
 15.57     549.39
 15.67     535.57
 15.77     587.00
 15.87     582.17
 15.97     573.00
 16.07     576.00
 16.17     523.00
 16.27     540.78
 16.37     546.00
 16.47     589.00
 16.57     573.68
 16.67     525.41
 16.77     564.00
 16.87     538.85
 16.97     536.00
 17.07     589.21
 17.17     570.10
 17.27     524.00
 17.37     573.00
 17.47     549.33
 17.57     567.00
 17.67     550.17
 17.77     520.29
 17.87     639.00
 17.97     540.00
 18.07     565.00
 18.17     599.10
 18.27     587.57
 18.37     562.00
 18.47     558.00
 18.57     538.00
 18.67     576.00
 18.77     591.70
 18.87     597.09
 18.97     587.81
 19.07     551.00
 19.17     565.00
 19.27     578.00
 19.37     550.00
 19.47     513.00
 19.57     575.31
 19.67     536.78
 19.77     538.00
 19.87     600.65
 19.97     524.13
 20.07     518.00
 20.17     564.00
 20.27     557.00
 20.37     557.00
 20.47     562.00
 20.57     515.00
 20.67     567.39
 20.77     562.00
 20.87     552.68
 20.97     524.00
 21.07     570.00
 21.17     561.00
 21.27     511.93
 21.37     559.00
 21.47     557.00
 21.57     590.02
 21.67     587.39
 21.77     541.00
 21.87     544.00
 21.97     588.04
 22.07     511.00
 22.17     543.00
 22.27     571.16
 22.37     570.00
 22.47     604.00
 22.57     542.00
 22.67     544.00
 22.77     541.00
 22.87     568.10
 22.97     565.38
 23.07     540.00
 23.17     571.00
 23.27     591.43
 23.37     524.00
 23.47     514.00
 23.57     569.53
 23.67     540.00
 23.77     549.00
 23.87     563.00
 23.97     537.26
 24.07     527.00
 24.17     570.08
 24.27     580.00
 24.37     527.45
 24.47     618.00
 24.57     583.09
 24.67     601.52
 24.77     606.00
 24.87     561.00
 24.97     609.00
 25.07     599.00
 25.17     530.66
 25.27     567.00
 25.37     569.00
 25.47     518.78
 25.57     565.00
 25.67     579.00
 25.77     517.00
 25.87     546.00
 25.97     595.00
 26.07     556.53
 26.17     498.00
 26.27     530.73
 26.37     543.83
 26.47     531.00
 26.57     499.00
 26.67     577.48
 26.77     559.00
 26.87     553.20
 26.97     580.93
 27.07     540.00
 27.17     534.28
 27.27     542.91
 27.37     580.00
 27.47     552.29
 27.57     546.00
 27.67     523.68
 27.77     554.00
 27.87     602.00
 27.97     667.00
 28.07     758.00
 28.17     895.00
 28.27     934.00
 28.37     930.52
 28.47     829.00
 28.57     713.00
 28.67     727.00
 28.77     766.90
 28.87     796.00
 28.97     761.00
 29.07     766.00
 29.17     721.00
 29.27     627.00
 29.37     610.00
 29.47     562.30
 29.57     647.00
 29.67     646.00
 29.77     647.00
 29.87     569.00
 29.97     594.00
 30.07     554.00
 30.17     556.00
 30.27     577.00
 30.37     500.58
 30.47     606.00
 30.57     538.00
 30.67     526.89
 30.77     606.30
 30.87     631.75
 30.97     629.62
 31.07     647.94
 31.17     618.00
 31.27     578.29
 31.37     505.00
 31.47     532.00
 31.57     541.29
 31.67     486.88
 31.77     535.00
 31.87     551.42
 31.97     557.56
 32.07     509.81
 32.17     522.00
 32.27     528.00
 32.37     485.52
 32.47     548.00
 32.57     523.00
 32.67     484.83
 32.77     507.00
 32.87     548.85
 32.97     514.00
 33.07     563.00
 33.17     513.15
 33.27     521.90
 33.37     522.74
 33.47     541.00
 33.57     618.99
 33.67     669.61
 33.77     705.45
 33.87     830.00
 33.97     965.04
 34.07    1028.00
 34.17    1039.38
 34.27     904.06
 34.37     757.27
 34.47     601.00
 34.57     577.84
 34.67     560.00
 34.77     567.00
 34.87     560.83
 34.97     551.00
 35.07     517.00
 35.17     558.00
 35.27     572.00
 35.37     527.00
 35.47     515.96
 35.57     514.00
 35.67     511.97
 35.77     493.00
 35.87     554.00
 35.97     475.75
 36.07     518.25
 36.17     523.00
 36.27     581.00
 36.37     533.00
 36.47     530.00
 36.57     473.03
 36.67     500.64
 36.77     523.50
 36.87     484.00
 36.97     533.00
 37.07     504.00
 37.17     496.51
 37.27     470.00
 37.37     529.60
 37.47     519.00
 37.57     522.15
 37.67     485.00
 37.77     518.00
 37.87     537.00
 37.97     541.45
 38.07     484.00
 38.17     529.00
 38.27     520.00
 38.37     526.71
 38.47     468.00
 38.57     499.00
 38.67     515.77
 38.77     525.00
 38.87     523.12
 38.97     483.72
 39.07     513.00
 39.17     524.00
 39.27     435.00
 39.37     497.00
 39.47     492.00
 39.57     501.00
 39.67     521.00
 39.77     500.00
 39.87     526.92
 39.97     480.00
 40.07     525.45
 40.17     498.00
 40.27     501.00
 40.37     499.00
 40.47     525.06
 40.57     570.00
 40.67     483.00
 40.77     497.00
 40.87     486.00
 40.97     534.00
 41.07     474.00
 41.17     516.00
 41.27     495.00
 41.37     548.02
 41.47     484.00
 41.57     523.00
 41.67     450.00
 41.77     494.00
 41.87     519.00
 41.97     512.00
 42.07     493.00
 42.17     539.38
 42.27     505.00
 42.37     544.64
 42.47     609.63
 42.57     594.00
 42.67     596.89
 42.77     661.12
 42.87     553.00
 42.97     621.78
 43.07     524.00
 43.17     561.00
 43.27     525.00
 43.37     483.80
 43.47     496.00
 43.57     519.17
 43.67     473.06
 43.77     499.00
 43.87     483.00
 43.97     520.00
 44.07     533.00
 44.17     530.00
 44.27     487.91
 44.37     492.00
 44.47     539.89
 44.57     518.00
 44.67     499.99
 44.77     499.29
 44.87     526.00
 44.97     506.00
 45.07     479.39
 45.17     508.00
 45.27     530.00
 45.37     516.00
 45.47     531.94
 45.57     477.00
 45.67     489.00
 45.77     520.43
 45.87     518.00
 45.97     549.80
 46.07     564.00
 46.17     499.00
 46.27     542.07
 46.37     467.00
 46.47     543.07
 46.57     517.00
 46.67     499.50
 46.77     498.00
 46.87     486.00
 46.97     549.00
 47.07     527.77
 47.17     471.00
 47.27     531.60
 47.37     498.03
 47.47     528.00
 47.57     534.00
 47.67     525.00
 47.77     550.04
 47.87     614.00
 47.97     560.60
 48.07     578.97
 48.17     574.00
 48.27     569.00
 48.37     536.00
 48.47     580.83
 48.57     531.66
 48.67     514.00
 48.77     537.00
 48.87     494.00
 48.97     531.00
 49.07     571.00
 49.17     611.00
 49.27     635.52
 49.37     702.98
 49.47     744.00
 49.57     810.29
 49.67     921.84
 49.77    1137.00
 49.87    1458.28
 49.97    1741.41
 50.07    2177.37
 50.17    2435.00
 50.27    2545.20
 50.37    2401.48
 50.47    1928.00
 50.57    1526.33
 50.67    1180.11
 50.77     881.87
 50.87     724.00
 50.97     673.00
 51.07     629.83
 51.17     649.00
 51.27     579.00
 51.37     604.86
 51.47     606.00
 51.57     577.83
 51.67     509.00
 51.77     515.00
 51.87     557.00
 51.97     533.00
 52.07     558.00
 52.17     506.43
 52.27     571.47
 52.37     595.00
 52.47     583.39
 52.57     602.00
 52.67     563.00
 52.77     611.00
 52.87     618.00
 52.97     638.52
 53.07     779.00
 53.17     849.42
 53.27    1000.00
 53.37    1132.00
 53.47    1143.55
 53.57    1170.18
 53.67    1074.00
 53.77    1054.00
 53.87     835.00
 53.97     770.10
 54.07     679.56
 54.17     664.00
 54.27     583.00
 54.37     575.00
 54.47     595.00
 54.57     575.00
 54.67     539.00
 54.77     561.00
 54.87     533.00
 54.97     569.00
 55.07     599.00
 55.17     515.97
 55.27     573.00
 55.37     598.00
 55.47     570.00
 55.57     593.00
 55.67     548.00
 55.77     561.00
 55.87     625.00
 55.97     623.00
 56.07     611.00
 56.17     711.00
 56.27     900.77
 56.37    1052.89
 56.47    1313.24
 56.57    1738.00
 56.67    2058.00
 56.77    2438.00
 56.87    2607.00
 56.97    2690.56
 57.07    2444.45
 57.17    2121.00
 57.27    1715.00
 57.37    1268.00
 57.47    1070.00
 57.57     839.29
 57.67     703.97
 57.77     780.00
 57.87     737.00
 57.97     657.00
 58.07     663.00
 58.17     676.00
 58.27     724.16
 58.37     867.00
 58.47     915.00
 58.57    1084.83
 58.67    1283.15
 58.77    1438.00
 58.87    1573.15
 58.97    1592.47
 59.07    1566.82
 59.17    1567.00
 59.27    1426.67
 59.37    1408.00
 59.47    1252.00
 59.57    1203.00
 59.67    1186.48
 59.77    1176.00
 59.87    1136.66
 59.97    1288.06
 60.07    1439.00
 60.17    1498.00
 60.27    1465.59
 60.37    1537.34
 60.47    1387.00
 60.57    1274.00
 60.67    1108.76
 60.77     924.00
 60.87     795.00
 60.97     730.00
 61.07     648.00
 61.17     658.00
 61.27     569.00
 61.37     590.00
 61.47     688.00
 61.57     733.00
 61.67     815.00
 61.77     911.94
 61.87    1131.58
 61.97    1227.00
 62.07    1360.00
 62.17    1382.00
 62.27    1410.00
 62.37    1411.37
 62.47    1181.00
 62.57    1071.00
 62.67     960.00
 62.77     803.00
 62.87     670.00
 62.97     614.00
 63.07     623.25
 63.17     597.00
 63.27     601.00
 63.37     610.00
 63.47     531.03
 63.57     527.00
 63.67     591.47
 63.77     605.00
 63.87     568.00
 63.97     599.59
 64.07     733.00
 64.17     775.00
 64.27     830.00
 64.37     852.41
 64.47     922.17
 64.57     981.00
 64.67    1042.00
 64.77    1019.00
 64.87    1021.00
 64.97     965.62
 65.07     823.84
 65.17     771.95
 65.27     705.00
 65.37     727.73
 65.47     692.02
 65.57     616.00
 65.67     641.00
 65.77     597.00
 65.87     600.00
 65.97     616.00
 66.07     548.81
 66.17     548.42
 66.27     515.78
 66.37     543.00
 66.47     540.00
 66.57     504.00
 66.67     555.36
 66.77     545.00
 66.87     575.00
 66.97     595.72
 67.07     586.01
 67.17     631.00
 67.27     731.00
 67.37     832.00
 67.47     991.00
 67.57    1145.72
 67.67    1445.88
 67.77    1758.00
 67.87    2050.00
 67.97    2182.00
 68.07    2458.00
 68.17    2459.00
 68.27    2217.60
 68.37    2012.88
 68.47    1890.00
 68.57    1572.00
 68.67    1304.00
 68.77    1104.29
 68.87     898.83
 68.97     773.00
 69.07     752.00
 69.17     623.46
 69.27     628.00
 69.37     609.00
 69.47     574.00
 69.57     527.43
 69.67     538.00
 69.77     618.00
 69.87     585.00
 69.97     582.81
 70.07     576.00
 70.17     597.00
 70.27     537.73
 70.37     547.00
 70.47     598.00
 70.57     592.00
 70.67     558.06
 70.77     576.00
 70.87     554.00
 70.97     598.00
 71.07     666.00
 71.17     712.00
 71.27     753.25
 71.37     846.36
 71.47    1030.97
 71.57    1169.01
 71.67    1342.36
 71.77    1628.60
 71.87    1742.00
 71.97    1846.00
 72.07    1861.00
 72.17    1942.00
 72.27    1757.00
 72.37    1620.43
 72.47    1507.01
 72.57    1416.00
 72.67    1243.00
 72.77    1130.00
 72.87     962.00
 72.97     916.00
 73.07     838.00
 73.17     786.00
 73.27     791.96
 73.37     703.38
 73.47     661.58
 73.57     699.21
 73.67     676.04
 73.77     592.00
 73.87     566.84
 73.97     612.00
 74.07     594.00
 74.17     584.00
 74.27     572.00
 74.37     616.90
 74.47     534.00
 74.57     624.00
 74.67     649.00
 74.77     666.00
 74.87     548.12
 74.97     680.00
 75.07     586.00
 75.17     560.00
 75.27     515.65
 75.37     558.55
 75.47     580.00
 75.57     532.00
 75.67     574.48
 75.77     556.00
 75.87     560.00
 75.97     611.00
 76.07     649.00
 76.17     617.98
 76.27     681.00
 76.37     646.26
 76.47     727.35
 76.57     741.00
 76.67     674.79
 76.77     689.00
 76.87     650.00
 76.97     621.00
 77.07     621.00
 77.17     580.16
 77.27     562.00
 77.37     534.03
 77.47     595.81
 77.57     548.00
 77.67     484.00
 77.77     504.00
 77.87     512.00
 77.97     494.00
 78.07     481.00
 78.17     483.00
 78.27     532.64
 78.37     519.00
 78.47     571.99
 78.57     509.85
 78.67     533.00
 78.77     519.00
 78.87     529.00
 78.97     511.00
 79.07     529.00
 79.17     571.33
 79.27     550.00
 79.37     539.00
 79.47     527.00
 79.57     513.00
 79.67     559.38
 79.77     536.00
 79.87     545.08
 79.97     565.00
 80.07     559.00
 80.17     616.00
 80.27     574.00
 80.37     571.00
 80.47     589.00
 80.57     582.74
 80.67     648.69
 80.77     631.00
 80.87     637.86
 80.97     725.54
 81.07     708.55
 81.17     766.00
 81.27     781.00
 81.37     763.91
 81.47     750.72
 81.57     763.00
 81.67     717.43
 81.77     719.00
 81.87     705.00
 81.97     704.00
 82.07     622.17
 82.17     669.00
 82.27     673.67
 82.37     633.00
 82.47     576.00
 82.57     587.71
 82.67     581.00
 82.77     512.00
 82.87     593.00
 82.97     551.00
 83.07     552.79
 83.17     557.00
 83.27     594.03
 83.37     520.85
 83.47     514.77
 83.57     540.00
 83.67     533.00
 83.77     538.00
 83.87     541.00
 83.97     587.00
 84.07     575.00
 84.17     568.00
 84.27     595.00
 84.37     531.00
 84.47     556.00
 84.57     535.00
 84.67     521.71
 84.77     536.00
 84.87     576.00
 84.97     557.42
 85.07     529.00
 85.17     529.00
 85.27     558.55
 85.37     568.00
 85.47     554.00
 85.57     517.93
 85.67     559.54
 85.77     478.00
 85.87     541.00
 85.97     515.00
 86.07     538.23
 86.17     526.08
 86.27     496.00
 86.37     580.93
 86.47     563.00
 86.57     532.38
 86.67     547.00
 86.77     586.00
 86.87     558.02
 86.97     598.19
 87.07     616.00
 87.17     644.02
 87.27     616.00
 87.37     593.00
 87.47     631.00
 87.57     673.41
 87.67     640.00
 87.77     637.00
 87.87     631.00
 87.97     651.00
 88.07     620.00
 88.17     628.41
 88.27     545.99
 88.37     596.00
 88.47     517.47
 88.57     567.00
 88.67     596.00
 88.77     578.00
 88.87     605.00
 88.97     587.33
 89.07     605.78
 89.17     573.00
 89.27     639.00
 89.37     579.00
 89.47     612.00
 89.57     551.00
 89.67     632.82
 89.77     550.73
 89.87     548.00
 89.97     569.79
 90.07     555.00
 90.17     563.82
 90.27     537.00
 90.37     538.98
 90.47     531.29
 90.57     533.00
 90.67     479.00
 90.77     497.00
 90.87     536.00
 90.97     514.00
 91.07     545.12
 91.17     519.00
 91.27     511.00
 91.37     496.00
 91.47     568.58
 91.57     521.00
 91.67     512.00
 91.77     504.00
 91.87     499.56
 91.97     541.33
 92.07     568.00
 92.17     607.87
 92.27     533.00
 92.37     600.30
 92.47     587.00
 92.57     655.27
 92.67     675.00
 92.77     654.00
 92.87     673.00
 92.97     745.00
 93.07     752.29
 93.17     754.00
 93.27     791.00
 93.37     817.00
 93.47     798.00
 93.57     804.00
 93.67     765.26
 93.77     817.00
 93.87     858.78
 93.97     883.00
 94.07     842.00
 94.17     799.78
 94.27     890.00
 94.37     891.00
 94.47     893.00
 94.57     831.08
 94.67     895.00
 94.77     855.04
 94.87     840.58
 94.97     876.00
 95.07     823.80
 95.17     812.04
 95.27     793.13
 95.37     831.00
 95.47     801.00
 95.57     774.89
 95.67     711.00
 95.77     732.00
 95.87     687.00
 95.97     672.00
 96.07     665.00
 96.17     700.58
 96.27     742.00
 96.37     737.00
 96.47     771.51
 96.57     829.56
 96.67     884.00
 96.77     986.17
 96.87     976.40
 96.97    1075.00
 97.07    1217.12
 97.17    1321.00
 97.27    1384.00
 97.37    1300.00
 97.47    1356.01
 97.57    1376.03
 97.67    1464.00
 97.77    1448.00
 97.87    1278.00
 97.97    1282.00
 98.07    1228.00
 98.17    1136.00
 98.27    1133.88
 98.37    1045.13
 98.47     908.41
 98.57     909.32
 98.67     804.33
 98.77     813.84
 98.87     788.82
 98.97     757.00
 99.07     775.00
 99.17     730.00
 99.27     853.96
 99.37     875.53
 99.47    1020.45
 99.57    1040.00
 99.67    1143.00
 99.77    1285.00
 99.87    1335.33
 99.97    1493.00
100.07    1598.89
100.17    1608.87
100.27    1765.04
100.37    1926.70
100.47    1974.00
100.57    2136.00
100.67    2152.00
100.77    2109.00
100.87    1997.31
100.97    2091.00
101.07    1974.54
101.17    1921.04
101.27    1940.00
101.37    1840.88
101.47    1632.01
101.57    1598.52
101.67    1453.00
101.77    1385.19
101.87    1403.64
101.97    1307.00
102.07    1176.00
102.17    1170.00
102.27    1106.00
102.37    1061.96
102.47    1081.18
102.57    1078.00
102.67    1039.00
102.77    1057.00
102.87     994.00
102.97    1012.00
103.07     906.00
103.17     921.92
103.27     909.14
103.37     774.51
103.47     746.28
103.57     734.03
103.67     737.00
103.77     626.46
103.87     677.00
103.97     608.00
104.07     554.75
104.17     599.00
104.27     572.00
104.37     542.00
104.47     530.51
104.57     511.17
104.67     511.00
104.77     542.00
104.87     512.12
104.97     576.00
105.07     502.43
105.17     546.00
105.27     534.00
105.37     505.52
105.47     529.62
105.57     572.97
105.67     552.00
105.77     511.88
105.87     573.00
105.97     540.00
106.07     578.87
106.17     629.00
106.27     554.00
106.37     606.31
106.47     609.85
106.57     660.93
106.67     665.76
106.77     614.43
106.87     651.00
106.97     607.00
107.07     648.00
107.17     665.00
107.27     681.00
107.37     671.00
107.47     696.00
107.57     700.00
107.67     665.00
107.77     731.55
107.87     677.00
107.97     655.12
108.07     660.00
108.17     708.75
108.27     711.45
108.37     670.00
108.47     633.00
108.57     694.00
108.67     687.18
108.77     715.02
108.87     732.91
108.97     638.00
109.07     732.00
109.17     661.08
109.27     704.00
109.37     667.50
109.47     659.00
109.57     638.00
109.67     583.00
109.77     567.66
109.87     614.00
109.97     615.00
110.07     616.74
110.17     547.37
110.27     585.00
110.37     557.00
110.47     538.36
110.57     549.00
110.67     501.00
110.77     559.00
110.87     573.00
110.97     558.14
111.07     574.69
111.17     559.15
111.27     550.00
111.37     500.59
111.47     555.00
111.57     517.21
111.67     531.83
111.77     517.15
111.87     522.21
111.97     540.00
112.07     567.00
112.17     543.00
112.27     568.00
112.37     597.00
112.47     595.00
112.57     633.00
112.67     641.56
112.77     578.00
112.87     636.00
112.97     638.00
113.07     713.00
113.17     666.99
113.27     743.00
113.37     761.00
113.47     841.19
113.57     814.52
113.67     927.62
113.77     950.00
113.87     975.00
113.97     960.00
114.07    1055.90
114.17    1152.00
114.27    1171.50
114.37    1226.00
114.47    1315.00
114.57    1455.00
114.67    1615.00
114.77    1700.00
114.87    1893.00
114.97    2113.00
115.07    2286.67
115.17    2529.97
115.27    2877.00
115.37    2951.00
115.47    3410.41
115.57    3777.25
115.67    3946.00
115.77    4529.29
115.87    4659.00
115.97    5201.43
116.07    5594.61
116.17    5872.46
116.27    6176.00
116.37    6555.00
116.47    6919.23
116.57    7028.00
116.67    7067.00
116.77    6886.96
116.87    7000.00
116.97    6882.57
117.07    6600.40
117.17    6381.44
117.27    5867.00
117.37    5526.00
117.47    5264.00
117.57    4931.00
117.67    4568.87
117.77    4205.00
117.87    3605.96
117.97    3521.00
118.07    2899.30
118.17    2677.00
118.27    2384.00
118.37    2136.10
118.47    1859.00
118.57    1608.00
118.67    1430.00
118.77    1323.01
118.87    1201.42
118.97    1023.67
119.07     926.00
119.17     854.00
119.27     873.15
119.37     761.00
119.47     734.00
119.57     736.00
119.67     642.00
119.77     623.42
119.87     654.00
119.97     627.00
120.07     605.00
120.17     574.00
120.27     559.00
120.37     600.00
120.47     574.00
120.57     561.00
120.67     551.00
120.77     563.00
120.87     547.50
120.97     531.59
121.07     596.00
121.17     587.00
121.27     609.00
121.37     587.00
121.47     567.00
121.57     607.00
121.67     609.00
121.77     612.00
121.87     643.00
121.97     640.80
122.07     608.00
122.17     600.00
122.27     659.00
122.37     597.66
122.47     604.00
122.57     642.00
122.67     627.00
122.77     650.00
122.87     651.00
122.97     626.00
123.07     623.34
123.17     645.00
123.27     605.66
123.37     655.00
123.47     616.00
123.57     657.00
123.67     625.00
123.77     620.00
123.87     688.00
123.97     613.00
124.07     642.00
124.17     702.00
124.27     633.42
124.37     572.00
124.47     566.00
124.57     570.00
124.67     622.00
124.77     592.00
124.87     623.22
124.97     599.59
