  9.97     565.00
 10.07     597.00
 10.17     539.13
 10.27     595.00
 10.37     595.00
 10.47     578.00
 10.57     555.17
 10.67     555.00
 10.77     541.17
 10.87     602.00
 10.97     615.00
 11.07     611.06
 11.17     582.00
 11.27     590.00
 11.37     590.00
 11.47     630.00
 11.57     603.00
 11.67     582.91
 11.77     634.00
 11.87     635.00
 11.97     648.00
 12.07     653.00
 12.17     697.00
 12.27     737.00
 12.37     670.03
 12.47     644.00
 12.57     596.00
 12.67     628.00
 12.77     607.00
 12.87     612.00
 12.97     545.39
 13.07     621.28
 13.17     606.00
 13.27     597.14
 13.37     595.00
 13.47     560.00
 13.57     541.00
 13.67     593.00
 13.77     582.00
 13.87     568.00
 13.97     546.00
 14.07     564.00
 14.17     589.90
 14.27     535.00
 14.37     561.00
 14.47     578.00
 14.57     578.00
 14.67     535.26
 14.77     597.00
 14.87     559.00
 14.97     564.00
 15.07     596.43
 15.17     566.00
 15.27     593.00
 15.37     589.24
 15.47     558.00
 15.57     514.00
 15.67     543.49
 15.77     642.00
 15.87     524.00
 15.97     545.00
 16.07     587.00
 16.17     524.55
 16.27     555.00
 16.37     554.36
 16.47     586.12
 16.57     597.00
 16.67     573.83
 16.77     523.00
 16.87     555.35
 16.97     560.34
 17.07     553.00
 17.17     578.56
 17.27     555.00
 17.37     572.00
 17.47     569.00
 17.57     548.08
 17.67     557.00
 17.77     558.00
 17.87     573.00
 17.97     542.00
 18.07     585.73
 18.17     605.00
 18.27     564.00
 18.37     572.71
 18.47     540.90
 18.57     581.00
 18.67     545.00
 18.77     530.00
 18.87     544.00
 18.97     552.00
 19.07     529.40
 19.17     557.00
 19.27     533.14
 19.37     562.00
 19.47     567.00
 19.57     570.00
 19.67     539.00
 19.77     546.00
 19.87     554.00
 19.97     514.03
 20.07     506.00
 20.17     533.00
 20.27     511.00
 20.37     524.00
 20.47     568.00
 20.57     555.00
 20.67     600.08
 20.77     513.00
 20.87     564.55
 20.97     567.00
 21.07     523.00
 21.17     568.00
 21.27     543.00
 21.37     528.00
 21.47     537.00
 21.57     541.00
 21.67     585.00
 21.77     606.00
 21.87     562.00
 21.97     556.00
 22.07     547.00
 22.17     584.05
 22.27     554.00
 22.37     515.42
 22.47     530.50
 22.57     560.98
 22.67     551.64
 22.77     568.53
 22.87     588.17
 22.97     552.00
 23.07     538.00
 23.17     536.90
 23.27     552.00
 23.37     577.92
 23.47     527.44
 23.57     520.00
 23.67     532.00
 23.77     568.00
 23.87     603.00
 23.97     505.99
 24.07     547.00
 24.17     604.00
 24.27     554.03
 24.37     552.00
 24.47     539.89
 24.57     608.24
 24.67     634.88
 24.77     582.00
 24.87     587.35
 24.97     635.00
 25.07     615.00
 25.17     598.31
 25.27     576.00
 25.37     524.84
 25.47     557.55
 25.57     552.00
 25.67     566.00
 25.77     535.41
 25.87     513.60
 25.97     527.00
 26.07     588.00
 26.17     567.00
 26.27     502.84
 26.37     564.00
 26.47     582.00
 26.57     498.66
 26.67     509.16
 26.77     549.00
 26.87     563.00
 26.97     560.00
 27.07     575.76
 27.17     553.00
 27.27     504.29
 27.37     568.00
 27.47     542.95
 27.57     550.00
 27.67     518.21
 27.77     582.00
 27.87     596.60
 27.97     696.00
 28.07     762.00
 28.17     906.00
 28.27     958.00
 28.37     859.42
 28.47     798.00
 28.57     690.85
 28.67     684.00
 28.77     720.00
 28.87     753.00
 28.97     860.07
 29.07     779.00
 29.17     723.40
 29.27     604.64
 29.37     591.00
 29.47     535.53
 29.57     608.00
 29.67     559.55
 29.77     562.63
 29.87     563.28
 29.97     574.00
 30.07     539.62
 30.17     558.00
 30.27     556.82
 30.37     532.57
 30.47     521.69
 30.57     567.36
 30.67     616.00
 30.77     587.00
 30.87     603.00
 30.97     633.00
 31.07     587.00
 31.17     568.21
 31.27     586.00
 31.37     587.03
 31.47     569.00
 31.57     543.00
 31.67     516.80
 31.77     573.00
 31.87     550.00
 31.97     592.00
 32.07     516.22
 32.17     543.96
 32.27     569.00
 32.37     573.00
 32.47     560.12
 32.57     507.89
 32.67     551.00
 32.77     490.36
 32.87     540.85
 32.97     514.00
 33.07     510.00
 33.17     574.00
 33.27     538.00
 33.37     520.00
 33.47     613.00
 33.57     635.22
 33.67     642.73
 33.77     763.00
 33.87     895.64
 33.97    1007.00
 34.07    1035.00
 34.17    1012.00
 34.27     907.00
 34.37     784.00
 34.47     619.21
 34.57     613.00
 34.67     537.76
 34.77     566.00
 34.87     502.74
 34.97     560.54
 35.07     545.00
 35.17     541.00
 35.27     484.60
 35.37     502.00
 35.47     522.09
 35.57     502.36
 35.67     500.00
 35.77     507.00
 35.87     545.00
 35.97     473.00
 36.07     510.00
 36.17     500.00
 36.27     461.00
 36.37     470.85
 36.47     482.74
 36.57     500.27
 36.67     504.00
 36.77     553.26
 36.87     491.00
 36.97     498.00
 37.07     535.00
 37.17     511.00
 37.27     481.58
 37.37     508.00
 37.47     499.00
 37.57     531.00
 37.67     499.28
 37.77     532.00
 37.87     500.00
 37.97     478.00
 38.07     519.00
 38.17     486.42
 38.27     531.61
 38.37     550.57
 38.47     506.00
 38.57     512.00
 38.67     474.00
 38.77     497.00
 38.87     502.15
 38.97     503.77
 39.07     548.00
 39.17     498.72
 39.27     498.00
 39.37     494.99
 39.47     463.00
 39.57     526.69
 39.67     531.00
 39.77     496.00
 39.87     468.13
 39.97     475.22
 40.07     508.44
 40.17     505.43
 40.27     459.00
 40.37     485.00
 40.47     493.00
 40.57     488.00
 40.67     496.00
 40.77     521.35
 40.87     536.58
 40.97     512.00
 41.07     466.74
 41.17     532.00
 41.27     453.00
 41.37     472.56
 41.47     521.27
 41.57     495.00
 41.67     548.03
 41.77     515.63
 41.87     491.00
 41.97     481.00
 42.07     518.00
 42.17     477.00
 42.27     510.00
 42.37     588.00
 42.47     565.00
 42.57     569.00
 42.67     549.00
 42.77     568.00
 42.87     630.00
 42.97     545.71
 43.07     559.00
 43.17     523.00
 43.27     538.00
 43.37     515.95
 43.47     488.00
 43.57     515.00
 43.67     534.00
 43.77     523.00
 43.87     519.00
 43.97     459.00
 44.07     481.00
 44.17     493.00
 44.27     532.96
 44.37     511.66
 44.47     516.00
 44.57     515.00
 44.67     543.04
 44.77     492.00
 44.87     524.00
 44.97     513.00
 45.07     478.00
 45.17     541.71
 45.27     489.00
 45.37     504.00
 45.47     513.46
 45.57     491.00
 45.67     543.41
 45.77     455.00
 45.87     464.06
 45.97     523.79
 46.07     513.88
 46.17     524.00
 46.27     493.00
 46.37     489.26
 46.47     525.00
 46.57     531.00
 46.67     496.17
 46.77     492.00
 46.87     511.15
 46.97     502.00
 47.07     474.58
 47.17     493.00
 47.27     540.82
 47.37     533.00
 47.47     559.77
 47.57     570.00
 47.67     521.00
 47.77     539.00
 47.87     589.00
 47.97     594.00
 48.07     538.20
 48.17     586.00
 48.27     569.00
 48.37     572.53
 48.47     575.00
 48.57     513.00
 48.67     510.00
 48.77     556.10
 48.87     571.00
 48.97     574.00
 49.07     553.64
 49.17     581.24
 49.27     620.96
 49.37     598.00
 49.47     665.00
 49.57     666.90
 49.67     854.00
 49.77    1117.00
 49.87    1327.56
 49.97    1812.00
 50.07    2172.00
 50.17    2405.00
 50.27    2448.00
 50.37    2178.00
 50.47    1842.87
 50.57    1411.00
 50.67    1086.42
 50.77     847.00
 50.87     717.11
 50.97     697.49
 51.07     611.04
 51.17     641.77
 51.27     625.32
 51.37     604.00
 51.47     530.25
 51.57     561.00
 51.67     534.00
 51.77     563.00
 51.87     501.11
 51.97     547.94
 52.07     555.15
 52.17     548.00
 52.27     549.00
 52.37     558.00
 52.47     571.00
 52.57     578.00
 52.67     534.56
 52.77     608.00
 52.87     633.00
 52.97     713.97
 53.07     773.88
 53.17     849.42
 53.27    1101.00
 53.37    1128.00
 53.47    1239.03
 53.57    1233.00
 53.67    1055.00
 53.77    1003.00
 53.87     824.00
 53.97     782.98
 54.07     701.00
 54.17     654.00
 54.27     570.69
 54.37     537.39
 54.47     545.00
 54.57     549.00
 54.67     541.00
 54.77     584.20
 54.87     568.00
 54.97     578.00
 55.07     582.00
 55.17     519.91
 55.27     508.72
 55.37     526.33
 55.47     579.00
 55.57     542.00
 55.67     592.92
 55.77     609.00
 55.87     620.00
 55.97     623.00
 56.07     740.01
 56.17     803.00
 56.27     979.17
 56.37    1190.41
 56.47    1442.00
 56.57    1750.00
 56.67    2141.00
 56.77    2399.44
 56.87    2563.00
 56.97    2671.00
 57.07    2383.00
 57.17    2031.29
 57.27    1611.00
 57.37    1354.35
 57.47    1056.00
 57.57     913.00
 57.67     800.00
 57.77     768.00
 57.87     676.17
 57.97     704.00
 58.07     706.00
 58.17     701.00
 58.27     745.00
 58.37     747.00
 58.47     879.41
 58.57     912.00
 58.67    1114.00
 58.77    1205.18
 58.87    1340.04
 58.97    1352.00
 59.07    1324.31
 59.17    1281.35
 59.27    1333.00
 59.37    1254.00
 59.47    1197.70
 59.57    1199.00
 59.67    1191.00
 59.77    1067.00
 59.87    1160.37
 59.97    1266.79
 60.07    1451.00
 60.17    1445.83
 60.27    1477.01
 60.37    1422.74
 60.47    1350.95
 60.57    1188.22
 60.67    1064.77
 60.77     886.00
 60.87     841.00
 60.97     714.00
 61.07     633.65
 61.17     614.00
 61.27     658.29
 61.37     669.00
 61.47     667.00
 61.57     741.00
 61.67     866.00
 61.77     924.70
 61.87    1153.10
 61.97    1164.00
 62.07    1360.00
 62.17    1453.00
 62.27    1470.52
 62.37    1302.00
 62.47    1122.00
 62.57    1052.00
 62.67     988.46
 62.77     755.00
 62.87     711.00
 62.97     656.00
 63.07     577.00
 63.17     609.00
 63.27     540.21
 63.37     600.63
 63.47     558.00
 63.57     564.00
 63.67     536.00
 63.77     598.00
 63.87     636.00
 63.97     707.00
 64.07     768.00
 64.17     778.00
 64.27     905.00
 64.37     924.90
 64.47     992.65
 64.57    1022.43
 64.67    1027.83
 64.77     996.00
 64.87    1020.00
 64.97     925.00
 65.07     890.00
 65.17     811.35
 65.27     728.00
 65.37     666.00
 65.47     690.44
 65.57     644.00
 65.67     635.77
 65.77     605.00
 65.87     556.96
 65.97     571.00
 66.07     575.11
 66.17     525.65
 66.27     547.04
 66.37     600.00
 66.47     539.80
 66.57     539.78
 66.67     540.87
 66.77     545.00
 66.87     570.00
 66.97     578.28
 67.07     644.00
 67.17     719.00
 67.27     815.00
 67.37     920.00
 67.47    1098.00
 67.57    1253.14
 67.67    1519.00
 67.77    1728.00
 67.87    2073.00
 67.97    2239.00
 68.07    2324.00
 68.17    2479.75
 68.27    2342.84
 68.37    2128.00
 68.47    1897.19
 68.57    1522.00
 68.67    1264.45
 68.77    1081.00
 68.87     924.00
 68.97     830.18
 69.07     678.38
 69.17     658.00
 69.27     610.22
 69.37     604.00
 69.47     604.00
 69.57     557.00
 69.67     576.00
 69.77     532.00
 69.87     597.79
 69.97     597.45
 70.07     553.00
 70.17     585.00
 70.27     603.00
 70.37     565.77
 70.47     612.06
 70.57     569.00
 70.67     569.00
 70.77     610.86
 70.87     618.00
 70.97     625.00
 71.07     645.88
 71.17     727.00
 71.27     827.00
 71.37     970.00
 71.47    1059.97
 71.57    1280.00
 71.67    1408.00
 71.77    1617.46
 71.87    1813.00
 71.97    1886.78
 72.07    1956.64
 72.17    1904.32
 72.27    1738.00
 72.37    1652.30
 72.47    1487.00
 72.57    1328.00
 72.67    1109.00
 72.77    1013.00
 72.87     922.52
 72.97     818.00
 73.07     721.00
 73.17     751.72
 73.27     643.00
 73.37     687.00
 73.47     644.27
 73.57     632.63
 73.67     564.00
 73.77     582.00
 73.87     626.00
 73.97     640.00
 74.07     559.33
 74.17     573.28
 74.27     580.00
 74.37     617.63
 74.47     544.60
 74.57     599.00
 74.67     654.00
 74.77     560.00
 74.87     606.81
 74.97     536.67
 75.07     565.53
 75.17     583.91
 75.27     557.00
 75.37     539.96
 75.47     560.71
 75.57     577.00
 75.67     561.67
 75.77     577.30
 75.87     609.64
 75.97     648.00
 76.07     594.34
 76.17     680.00
 76.27     641.00
 76.37     684.00
 76.47     683.00
 76.57     720.00
 76.67     653.00
 76.77     642.00
 76.87     641.00
 76.97     678.55
 77.07     589.00
 77.17     613.60
 77.27     571.08
 77.37     593.00
 77.47     569.00
 77.57     524.00
 77.67     528.00
 77.77     498.49
 77.87     530.00
 77.97     501.10
 78.07     527.00
 78.17     516.00
 78.27     521.45
 78.37     492.00
 78.47     505.00
 78.57     525.12
 78.67     505.72
 78.77     509.59
 78.87     567.00
 78.97     522.30
 79.07     485.69
 79.17     533.94
 79.27     511.76
 79.37     500.41
 79.47     500.00
 79.57     555.00
 79.67     523.74
 79.77     531.19
 79.87     545.00
 79.97     542.00
 80.07     509.00
 80.17     581.14
 80.27     585.00
 80.37     559.00
 80.47     601.00
 80.57     622.00
 80.67     614.00
 80.77     656.00
 80.87     626.15
 80.97     692.00
 81.07     738.83
 81.17     734.00
 81.27     749.00
 81.37     758.61
 81.47     740.00
 81.57     770.16
 81.67     734.00
 81.77     740.00
 81.87     698.00
 81.97     687.00
 82.07     680.00
 82.17     647.44
 82.27     639.79
 82.37     694.00
 82.47     630.00
 82.57     551.54
 82.67     560.00
 82.77     521.00
 82.87     548.00
 82.97     553.00
 83.07     522.00
 83.17     571.58
 83.27     563.00
 83.37     554.00
 83.47     569.00
 83.57     595.54
 83.67     590.00
 83.77     514.00
 83.87     571.92
 83.97     604.41
 84.07     624.20
 84.17     551.00
 84.27     567.00
 84.37     553.00
 84.47     548.97
 84.57     585.00
 84.67     516.30
 84.77     541.00
 84.87     538.00
 84.97     560.00
 85.07     506.00
 85.17     567.00
 85.27     564.72
 85.37     570.66
 85.47     492.92
 85.57     510.00
 85.67     485.67
 85.77     561.58
 85.87     523.08
 85.97     540.00
 86.07     526.00
 86.17     548.00
 86.27     597.00
 86.37     535.00
 86.47     557.00
 86.57     562.00
 86.67     564.17
 86.77     598.64
 86.87     541.93
 86.97     617.63
 87.07     611.89
 87.17     662.09
 87.27     637.00
 87.37     663.00
 87.47     627.00
 87.57     654.00
 87.67     597.25
 87.77     666.25
 87.87     594.00
 87.97     577.93
 88.07     630.90
 88.17     590.41
 88.27     614.00
 88.37     540.61
 88.47     593.38
 88.57     587.03
 88.67     554.00
 88.77     587.12
 88.87     532.00
 88.97     574.00
 89.07     598.00
 89.17     580.15
 89.27     587.00
 89.37     572.00
 89.47     567.00
 89.57     590.00
 89.67     624.64
 89.77     563.00
 89.87     599.00
 89.97     515.00
 90.07     565.03
 90.17     586.55
 90.27     538.00
 90.37     573.32
 90.47     535.00
 90.57     532.00
 90.67     506.79
 90.77     529.00
 90.87     516.54
 90.97     484.00
 91.07     529.00
 91.17     556.00
 91.27     508.00
 91.37     525.35
 91.47     517.00
 91.57     571.00
 91.67     530.56
 91.77     553.00
 91.87     510.79
 91.97     568.00
 92.07     527.00
 92.17     612.20
 92.27     622.70
 92.37     598.00
 92.47     614.73
 92.57     668.41
 92.67     701.00
 92.77     654.16
 92.87     658.00
 92.97     714.00
 93.07     744.00
 93.17     758.00
 93.27     767.00
 93.37     792.00
 93.47     763.00
 93.57     805.00
 93.67     813.00
 93.77     784.41
 93.87     829.00
 93.97     828.66
 94.07     816.00
 94.17     890.64
 94.27     850.00
 94.37     912.00
 94.47     917.00
 94.57     901.00
 94.67     937.00
 94.77     940.00
 94.87     917.00
 94.97     952.00
 95.07     846.00
 95.17     871.03
 95.27     842.16
 95.37     818.00
 95.47     761.00
 95.57     768.00
 95.67     755.63
 95.77     743.85
 95.87     722.00
 95.97     683.00
 96.07     732.00
 96.17     670.00
 96.27     744.00
 96.37     735.00
 96.47     779.00
 96.57     816.05
 96.67     930.00
 96.77    1044.69
 96.87    1093.15
 96.97    1156.00
 97.07    1160.04
 97.17    1234.85
 97.27    1341.00
 97.37    1389.00
 97.47    1478.47
 97.57    1372.93
 97.67    1405.00
 97.77    1361.00
 97.87    1366.00
 97.97    1309.00
 98.07    1261.00
 98.17    1241.21
 98.27    1094.00
 98.37    1049.00
 98.47     944.72
 98.57     886.00
 98.67     855.00
 98.77     838.00
 98.87     869.41
 98.97     781.29
 99.07     832.80
 99.17     868.00
 99.27     921.00
 99.37    1004.99
 99.47     969.00
 99.57    1060.00
 99.67    1175.13
 99.77    1249.00
 99.87    1414.00
 99.97    1543.00
100.07    1627.00
100.17    1737.00
100.27    1881.00
100.37    1835.51
100.47    1886.00
100.57    2019.12
100.67    2019.00
100.77    2097.00
100.87    1980.00
100.97    1892.20
101.07    1891.00
101.17    1939.00
101.27    1757.47
101.37    1644.60
101.47    1661.00
101.57    1501.00
101.67    1413.00
101.77    1377.71
101.87    1285.00
101.97    1221.00
102.07    1253.00
102.17    1183.00
102.27    1229.38
102.37    1149.99
102.47    1134.00
102.57    1050.00
102.67    1072.00
102.77    1000.00
102.87    1068.89
102.97     992.00
103.07     979.00
103.17     883.08
103.27     832.67
103.37     778.69
103.47     791.00
103.57     787.00
103.67     697.92
103.77     727.00
103.87     668.00
103.97     662.00
104.07     643.00
104.17     617.00
104.27     599.83
104.37     526.52
104.47     558.00
104.57     595.76
104.67     594.00
104.77     581.00
104.87     535.00
104.97     556.90
105.07     507.00
105.17     537.00
105.27     552.00
105.37     548.00
105.47     557.00
105.57     580.00
105.67     557.00
105.77     556.38
105.87     550.00
105.97     591.00
106.07     625.00
106.17     623.78
106.27     556.00
106.37     623.82
106.47     584.19
106.57     607.00
106.67     626.00
106.77     654.49
106.87     662.00
106.97     699.00
107.07     638.00
107.17     663.00
107.27     716.00
107.37     742.27
107.47     675.00
107.57     726.00
107.67     648.00
107.77     701.00
107.87     658.00
107.97     701.00
108.07     671.00
108.17     654.00
108.27     737.86
108.37     673.53
108.47     723.00
108.57     687.14
108.67     690.00
108.77     666.00
108.87     696.00
108.97     697.31
109.07     649.49
109.17     657.00
109.27     632.00
109.37     652.47
109.47     606.17
109.57     617.00
109.67     640.00
109.77     615.00
109.87     572.77
109.97     613.00
110.07     593.66
110.17     626.00
110.27     554.00
110.37     550.84
110.47     588.00
110.57     537.00
110.67     532.00
110.77     503.58
110.87     618.00
110.97     539.00
111.07     536.00
111.17     546.34
111.27     573.87
111.37     571.00
111.47     543.00
111.57     578.00
111.67     554.00
111.77     534.00
111.87     564.35
111.97     573.17
112.07     530.00
112.17     601.33
112.27     549.31
112.37     645.00
112.47     559.06
112.57     565.57
112.67     637.61
112.77     582.00
112.87     597.00
112.97     628.00
113.07     628.83
113.17     639.00
113.27     643.96
113.37     658.00
113.47     714.00
113.57     711.86
113.67     737.00
113.77     765.00
113.87     833.64
113.97     794.00
114.07     848.00
114.17     923.00
114.27     999.14
114.37    1033.00
114.47    1250.43
114.57    1361.50
114.67    1493.20
114.77    1643.85
114.87    1868.00
114.97    2069.00
115.07    2314.00
115.17    2467.00
115.27    2873.00
115.37    3209.00
115.47    3303.00
115.57    3722.00
115.67    4052.05
115.77    4349.00
115.87    4854.00
115.97    5226.00
116.07    5535.00
116.17    5890.00
116.27    6113.00
116.37    6296.50
116.47    6550.00
116.57    6834.00
116.67    6953.33
116.77    6836.00
116.87    6596.91
116.97    6577.00
117.07    6165.00
117.17    6158.00
117.27    5957.96
117.37    5323.00
117.47    5050.00
117.57    4825.07
117.67    4325.12
117.77    3929.46
117.87    3530.47
117.97    3173.15
118.07    2863.00
118.17    2605.00
118.27    2353.00
118.37    2105.00
118.47    1870.00
118.57    1659.00
118.67    1476.00
118.77    1370.69
118.87    1188.00
118.97    1094.36
119.07    1039.00
119.17     918.00
119.27     892.09
119.37     813.00
119.47     737.00
119.57     707.60
119.67     731.14
119.77     628.00
119.87     629.00
119.97     633.00
120.07     597.00
120.17     621.00
120.27     566.36
120.37     565.00
120.47     578.00
120.57     565.00
120.67     604.00
120.77     550.46
120.87     563.92
120.97     611.00
121.07     577.91
121.17     586.00
121.27     556.45
121.37     567.00
121.47     634.00
121.57     616.00
121.67     606.00
121.77     586.00
121.87     589.00
121.97     569.63
122.07     614.00
122.17     572.00
122.27     624.00
122.37     660.00
122.47     634.00
122.57     628.00
122.67     670.00
122.77     631.00
122.87     653.45
122.97     625.04
123.07     651.00
123.17     652.00
123.27     629.69
123.37     638.00
123.47     642.00
123.57     587.81
123.67     648.38
123.77     603.56
123.87     633.43
123.97     627.00
124.07     649.74
124.17     584.70
124.27     572.27
124.37     623.00
124.47     598.00
124.57     637.84
124.67     602.00
124.77     574.00
124.87     597.30
124.97     575.00
