  9.97     616.00
 10.07     587.00
 10.17     590.00
 10.27     619.36
 10.37     614.00
 10.47     571.00
 10.57     617.00
 10.67     622.74
 10.77     602.00
 10.87     549.00
 10.97     577.00
 11.07     615.00
 11.17     540.00
 11.27     613.00
 11.37     612.31
 11.47     572.00
 11.57     599.00
 11.67     559.37
 11.77     590.79
 11.87     587.75
 11.97     675.00
 12.07     651.00
 12.17     702.00
 12.27     742.10
 12.37     690.81
 12.47     659.00
 12.57     643.35
 12.67     637.68
 12.77     560.96
 12.87     551.71
 12.97     567.00
 13.07     578.29
 13.17     594.00
 13.27     565.00
 13.37     565.00
 13.47     588.00
 13.57     568.65
 13.67     598.00
 13.77     560.00
 13.87     599.00
 13.97     578.00
 14.07     580.00
 14.17     589.00
 14.27     520.00
 14.37     557.23
 14.47     588.07
 14.57     548.00
 14.67     520.00
 14.77     562.00
 14.87     581.00
 14.97     548.16
 15.07     591.00
 15.17     526.93
 15.27     581.00
 15.37     553.61
 15.47     558.09
 15.57     537.34
 15.67     593.00
 15.77     553.00
 15.87     571.00
 15.97     578.00
 16.07     548.85
 16.17     548.00
 16.27     522.11
 16.37     556.00
 16.47     586.74
 16.57     577.00
 16.67     557.00
 16.77     524.00
 16.87     570.00
 16.97     554.00
 17.07     564.60
 17.17     534.00
 17.27     535.00
 17.37     520.82
 17.47     580.00
 17.57     549.00
 17.67     570.00
 17.77     566.00
 17.87     530.00
 17.97     591.98
 18.07     545.00
 18.17     550.68
 18.27     601.73
 18.37     570.30
 18.47     590.39
 18.57     591.46
 18.67     544.00
 18.77     592.77
 18.87     563.00
 18.97     518.10
 19.07     544.00
 19.17     571.00
 19.27     595.00
 19.37     568.00
 19.47     588.00
 19.57     553.00
 19.67     584.00
 19.77     522.00
 19.87     569.00
 19.97     588.00
 20.07     554.00
 20.17     559.14
 20.27     565.00
 20.37     565.59
 20.47     527.00
 20.57     529.96
 20.67     562.27
 20.77     525.00
 20.87     593.66
 20.97     573.25
 21.07     538.00
 21.17     539.00
 21.27     588.00
 21.37     598.00
 21.47     539.00
 21.57     541.00
 21.67     546.00
 21.77     562.00
 21.87     563.00
 21.97     553.00
 22.07     600.00
 22.17     537.00
 22.27     590.00
 22.37     574.74
 22.47     561.00
 22.57     592.79
 22.67     549.00
 22.77     536.62
 22.87     559.00
 22.97     532.48
 23.07     512.55
 23.17     518.00
 23.27     543.00
 23.37     563.00
 23.47     538.00
 23.57     529.00
 23.67     578.74
 23.77     533.00
 23.87     589.00
 23.97     583.33
 24.07     523.00
 24.17     562.00
 24.27     549.00
 24.37     557.61
 24.47     547.29
 24.57     606.71
 24.67     655.54
 24.77     640.00
 24.87     622.00
 24.97     620.00
 25.07     605.00
 25.17     552.00
 25.27     574.96
 25.37     523.00
 25.47     573.00
 25.57     569.49
 25.67     534.22
 25.77     566.59
 25.87     559.00
 25.97     568.56
 26.07     553.00
 26.17     584.00
 26.27     546.00
 26.37     519.61
 26.47     589.00
 26.57     561.00
 26.67     547.00
 26.77     538.00
 26.87     565.00
 26.97     553.16
 27.07     571.21
 27.17     559.00
 27.27     557.00
 27.37     518.69
 27.47     578.00
 27.57     544.00
 27.67     559.00
 27.77     554.00
 27.87     585.37
 27.97     641.00
 28.07     750.00
 28.17     835.00
 28.27     921.00
 28.37     923.00
 28.47     796.07
 28.57     753.39
 28.67     729.58
 28.77     747.92
 28.87     834.00
 28.97     819.00
 29.07     755.46
 29.17     769.00
 29.27     603.56
 29.37     580.00
 29.47     572.00
 29.57     554.26
 29.67     590.16
 29.77     564.42
 29.87     598.00
 29.97     559.00
 30.07     618.00
 30.17     545.00
 30.27     567.00
 30.37     557.00
 30.47     553.32
 30.57     555.00
 30.67     579.00
 30.77     585.95
 30.87     604.00
 30.97     563.59
 31.07     616.07
 31.17     532.00
 31.27     560.00
 31.37     502.26
 31.47     543.00
 31.57     548.00
 31.67     534.00
 31.77     518.00
 31.87     557.00
 31.97     503.00
 32.07     560.07
 32.17     505.00
 32.27     584.00
 32.37     501.00
 32.47     550.00
 32.57     552.00
 32.67     510.00
 32.77     528.00
 32.87     534.00
 32.97     512.00
 33.07     556.00
 33.17     547.00
 33.27     554.00
 33.37     579.16
 33.47     574.00
 33.57     573.25
 33.67     674.00
 33.77     727.00
 33.87     917.00
 33.97    1019.07
 34.07    1013.00
 34.17     988.00
 34.27     870.05
 34.37     798.39
 34.47     634.48
 34.57     620.10
 34.67     563.73
 34.77     564.00
 34.87     515.15
 34.97     528.00
 35.07     515.00
 35.17     531.26
 35.27     554.00
 35.37     505.00
 35.47     481.00
 35.57     526.00
 35.67     498.00
 35.77     508.24
 35.87     550.00
 35.97     520.00
 36.07     535.00
 36.17     479.67
 36.27     531.00
 36.37     517.00
 36.47     485.00
 36.57     477.00
 36.67     538.03
 36.77     509.00
 36.87     539.00
 36.97     541.02
 37.07     499.00
 37.17     520.19
 37.27     559.68
 37.37     477.04
 37.47     515.00
 37.57     553.00
 37.67     522.00
 37.77     532.00
 37.87     499.00
 37.97     552.27
 38.07     526.00
 38.17     559.62
 38.27     480.35
 38.37     511.00
 38.47     485.00
 38.57     543.34
 38.67     497.19
 38.77     522.00
 38.87     521.00
 38.97     515.00
 39.07     535.82
 39.17     498.00
 39.27     514.00
 39.37     484.00
 39.47     524.30
 39.57     489.86
 39.67     535.43
 39.77     467.94
 39.87     492.00
 39.97     533.28
 40.07     500.00
 40.17     536.99
 40.27     514.00
 40.37     512.04
 40.47     492.00
 40.57     473.00
 40.67     491.00
 40.77     497.00
 40.87     540.17
 40.97     526.00
 41.07     522.00
 41.17     518.00
 41.27     528.00
 41.37     544.00
 41.47     487.00
 41.57     471.00
 41.67     507.00
 41.77     499.17
 41.87     530.80
 41.97     516.98
 42.07     490.00
 42.17     531.00
 42.27     495.45
 42.37     522.00
 42.47     611.00
 42.57     610.00
 42.67     645.52
 42.77     606.00
 42.87     585.00
 42.97     527.00
 43.07     513.00
 43.17     491.69
 43.27     512.18
 43.37     498.00
 43.47     552.46
 43.57     502.00
 43.67     541.62
 43.77     508.22
 43.87     506.00
 43.97     498.73
 44.07     527.00
 44.17     506.00
 44.27     481.42
 44.37     517.00
 44.47     489.00
 44.57     472.62
 44.67     444.00
 44.77     494.00
 44.87     549.29
 44.97     491.00
 45.07     478.00
 45.17     487.00
 45.27     517.00
 45.37     503.79
 45.47     505.00
 45.57     548.18
 45.67     497.00
 45.77     470.01
 45.87     500.00
 45.97     521.84
 46.07     475.00
 46.17     542.99
 46.27     519.00
 46.37     508.00
 46.47     517.00
 46.57     505.00
 46.67     521.00
 46.77     491.01
 46.87     519.00
 46.97     540.82
 47.07     533.55
 47.17     496.00
 47.27     513.15
 47.37     505.50
 47.47     507.00
 47.57     531.19
 47.67     585.00
 47.77     602.04
 47.87     633.50
 47.97     582.00
 48.07     615.00
 48.17     591.00
 48.27     564.00
 48.37     544.00
 48.47     580.43
 48.57     553.02
 48.67     523.00
 48.77     495.17
 48.87     504.00
 48.97     523.00
 49.07     600.00
 49.17     542.00
 49.27     629.00
 49.37     655.00
 49.47     701.00
 49.57     782.00
 49.67     875.00
 49.77    1079.00
 49.87    1434.00
 49.97    1835.00
 50.07    2257.00
 50.17    2461.00
 50.27    2515.00
 50.37    2300.00
 50.47    1850.00
 50.57    1407.03
 50.67    1061.00
 50.77     912.00
 50.87     710.00
 50.97     657.00
 51.07     621.73
 51.17     614.00
 51.27     620.75
 51.37     584.00
 51.47     549.00
 51.57     567.63
 51.67     624.00
 51.77     520.00
 51.87     522.30
 51.97     557.00
 52.07     577.00
 52.17     573.00
 52.27     606.00
 52.37     531.23
 52.47     547.96
 52.57     555.34
 52.67     565.06
 52.77     636.00
 52.87     625.46
 52.97     769.00
 53.07     794.00
 53.17     861.00
 53.27    1035.00
 53.37    1176.41
 53.47    1194.00
 53.57    1169.00
 53.67    1147.97
 53.77    1048.12
 53.87     920.85
 53.97     725.00
 54.07     718.00
 54.17     677.00
 54.27     618.00
 54.37     612.34
 54.47     567.00
 54.57     576.00
 54.67     577.73
 54.77     542.00
 54.87     505.63
 54.97     565.60
 55.07     564.00
 55.17     585.00
 55.27     571.00
 55.37     558.70
 55.47     562.00
 55.57     540.18
 55.67     585.00
 55.77     566.00
 55.87     564.00
 55.97     620.00
 56.07     711.19
 56.17     745.00
 56.27     884.54
 56.37    1135.00
 56.47    1455.00
 56.57    1711.00
 56.67    2149.00
 56.77    2508.00
 56.87    2603.00
 56.97    2635.11
 57.07    2344.00
 57.17    2084.73
 57.27    1714.00
 57.37    1326.00
 57.47    1018.00
 57.57     847.00
 57.67     803.00
 57.77     672.40
 57.87     681.00
 57.97     667.00
 58.07     680.99
 58.17     700.00
 58.27     762.54
 58.37     806.00
 58.47     925.00
 58.57    1026.63
 58.67    1222.00
 58.77    1305.25
 58.87    1431.00
 58.97    1445.17
 59.07    1547.00
 59.17    1457.00
 59.27    1405.00
 59.37    1314.13
 59.47    1266.00
 59.57    1144.00
 59.67    1154.00
 59.77    1183.00
 59.87    1279.00
 59.97    1245.82
 60.07    1404.00
 60.17    1498.00
 60.27    1603.00
 60.37    1555.00
 60.47    1421.17
 60.57    1271.00
 60.67     997.95
 60.77     930.00
 60.87     827.79
 60.97     738.00
 61.07     678.00
 61.17     667.00
 61.27     668.69
 61.37     652.00
 61.47     735.40
 61.57     803.45
 61.67     889.00
 61.77     992.00
 61.87    1102.00
 61.97    1228.00
 62.07    1389.93
 62.17    1417.44
 62.27    1416.00
 62.37    1275.19
 62.47    1259.28
 62.57    1051.66
 62.67     876.64
 62.77     747.75
 62.87     661.00
 62.97     673.00
 63.07     578.72
 63.17     616.92
 63.27     613.00
 63.37     596.74
 63.47     545.97
 63.57     553.46
 63.67     559.62
 63.77     636.00
 63.87     650.66
 63.97     647.00
 64.07     647.26
 64.17     778.00
 64.27     804.55
 64.37     885.00
 64.47     917.04
 64.57    1028.00
 64.67     995.00
 64.77    1074.00
 64.87     918.00
 64.97     942.00
 65.07     797.49
 65.17     800.00
 65.27     693.87
 65.37     671.00
 65.47     630.00
 65.57     677.04
 65.67     648.21
 65.77     543.00
 65.87     572.43
 65.97     587.31
 66.07     547.00
 66.17     537.00
 66.27     500.00
 66.37     585.71
 66.47     570.00
 66.57     566.00
 66.67     570.92
 66.77     588.00
 66.87     555.00
 66.97     652.83
 67.07     693.19
 67.17     701.00
 67.27     792.00
 67.37     891.00
 67.47    1103.28
 67.57    1289.00
 67.67    1523.00
 67.77    1757.00
 67.87    2120.00
 67.97    2341.33
 68.07    2444.34
 68.17    2464.44
 68.27    2228.35
 68.37    2097.00
 68.47    1830.00
 68.57    1491.00
 68.67    1278.00
 68.77    1029.61
 68.87     848.29
 68.97     791.00
 69.07     689.00
 69.17     645.23
 69.27     636.58
 69.37     571.00
 69.47     611.00
 69.57     549.37
 69.67     570.00
 69.77     549.00
 69.87     566.97
 69.97     570.07
 70.07     594.00
 70.17     589.00
 70.27     566.96
 70.37     562.00
 70.47     578.00
 70.57     528.88
 70.67     553.06
 70.77     582.00
 70.87     577.00
 70.97     648.54
 71.07     653.80
 71.17     724.00
 71.27     849.20
 71.37     962.00
 71.47    1148.02
 71.57    1227.00
 71.67    1389.89
 71.77    1640.00
 71.87    1829.57
 71.97    1907.66
 72.07    1969.00
 72.17    1877.33
 72.27    1818.73
 72.37    1576.45
 72.47    1484.80
 72.57    1308.00
 72.67    1140.00
 72.77    1061.00
 72.87     945.33
 72.97     848.00
 73.07     791.00
 73.17     709.00
 73.27     707.00
 73.37     666.00
 73.47     612.41
 73.57     635.87
 73.67     603.00
 73.77     588.00
 73.87     548.28
 73.97     575.00
 74.07     582.00
 74.17     601.00
 74.27     643.00
 74.37     586.00
 74.47     658.00
 74.57     563.96
 74.67     587.54
 74.77     643.00
 74.87     561.99
 74.97     591.00
 75.07     616.00
 75.17     578.00
 75.27     551.00
 75.37     595.04
 75.47     576.00
 75.57     561.90
 75.67     608.00
 75.77     624.12
 75.87     569.55
 75.97     625.00
 76.07     664.00
 76.17     655.00
 76.27     692.00
 76.37     662.55
 76.47     657.05
 76.57     692.07
 76.67     714.16
 76.77     665.00
 76.87     656.00
 76.97     644.00
 77.07     588.58
 77.17     600.00
 77.27     625.89
 77.37     483.00
 77.47     559.48
 77.57     583.14
 77.67     520.75
 77.77     544.00
 77.87     512.00
 77.97     529.00
 78.07     509.45
 78.17     536.37
 78.27     533.00
 78.37     494.75
 78.47     512.27
 78.57     508.00
 78.67     507.53
 78.77     539.56
 78.87     555.38
 78.97     490.49
 79.07     506.00
 79.17     491.89
 79.27     523.00
 79.37     543.00
 79.47     562.34
 79.57     533.00
 79.67     578.80
 79.77     536.06
 79.87     538.00
 79.97     589.98
 80.07     554.00
 80.17     538.00
 80.27     597.00
 80.37     614.68
 80.47     636.29
 80.57     645.66
 80.67     600.00
 80.77     609.83
 80.87     657.00
 80.97     687.00
 81.07     687.45
 81.17     778.00
 81.27     739.49
 81.37     754.00
 81.47     741.00
 81.57     734.00
 81.67     692.38
 81.77     759.70
 81.87     677.25
 81.97     702.00
 82.07     716.00
 82.17     675.64
 82.27     677.00
 82.37     630.96
 82.47     635.00
 82.57     583.00
 82.67     568.85
 82.77     590.00
 82.87     558.00
 82.97     582.00
 83.07     556.06
 83.17     498.00
 83.27     587.12
 83.37     545.01
 83.47     542.00
 83.57     572.40
 83.67     601.87
 83.77     544.12
 83.87     615.00
 83.97     577.00
 84.07     613.00
 84.17     588.00
 84.27     572.59
 84.37     575.00
 84.47     544.00
 84.57     564.00
 84.67     556.00
 84.77     558.00
 84.87     500.77
 84.97     542.00
 85.07     490.76
 85.17     536.00
 85.27     499.00
 85.37     494.06
 85.47     521.00
 85.57     562.32
 85.67     512.00
 85.77     515.00
 85.87     572.62
 85.97     543.00
 86.07     554.06
 86.17     536.00
 86.27     557.00
 86.37     511.00
 86.47     530.88
 86.57     575.00
 86.67     612.00
 86.77     568.00
 86.87     623.00
 86.97     613.00
 87.07     617.00
 87.17     636.85
 87.27     636.00
 87.37     650.00
 87.47     632.00
 87.57     655.00
 87.67     685.00
 87.77     639.00
 87.87     625.00
 87.97     618.00
 88.07     603.00
 88.17     534.81
 88.27     560.00
 88.37     595.13
 88.47     572.17
 88.57     590.00
 88.67     559.00
 88.77     587.94
 88.87     558.00
 88.97     576.00
 89.07     620.00
 89.17     563.71
 89.27     575.00
 89.37     594.93
 89.47     572.88
 89.57     548.00
 89.67     581.00
 89.77     569.02
 89.87     579.62
 89.97     530.00
 90.07     578.00
 90.17     536.00
 90.27     579.00
 90.37     582.67
 90.47     580.46
 90.57     537.00
 90.67     571.20
 90.77     527.00
 90.87     525.00
 90.97     509.00
 91.07     560.02
 91.17     541.00
 91.27     518.75
 91.37     538.00
 91.47     572.63
 91.57     516.00
 91.67     578.00
 91.77     536.00
 91.87     510.00
 91.97     556.00
 92.07     582.66
 92.17     545.70
 92.27     571.00
 92.37     599.62
 92.47     653.00
 92.57     619.98
 92.67     703.00
 92.77     662.00
 92.87     728.00
 92.97     724.00
 93.07     771.18
 93.17     780.05
 93.27     812.00
 93.37     806.10
 93.47     848.07
 93.57     857.00
 93.67     772.57
 93.77     792.00
 93.87     783.63
 93.97     772.00
 94.07     810.00
 94.17     824.00
 94.27     876.00
 94.37     925.00
 94.47     932.00
 94.57     893.00
 94.67     898.00
 94.77     914.07
 94.87     973.00
 94.97     911.00
 95.07     831.27
 95.17     841.00
 95.27     766.44
 95.37     793.00
 95.47     821.00
 95.57     781.18
 95.67     732.00
 95.77     688.26
 95.87     713.75
 95.97     713.00
 96.07     725.00
 96.17     719.00
 96.27     676.80
 96.37     769.00
 96.47     851.00
 96.57     839.00
 96.67     990.00
 96.77    1019.21
 96.87    1008.10
 96.97    1088.60
 97.07    1216.55
 97.17    1245.14
 97.27    1302.98
 97.37    1440.00
 97.47    1452.92
 97.57    1475.83
 97.67    1484.46
 97.77    1401.00
 97.87    1348.80
 97.97    1308.00
 98.07    1182.53
 98.17    1170.69
 98.27    1074.91
 98.37    1001.00
 98.47     936.00
 98.57     860.79
 98.67     880.67
 98.77     833.64
 98.87     852.00
 98.97     810.00
 99.07     799.00
 99.17     816.00
 99.27     849.00
 99.37     923.07
 99.47    1014.34
 99.57    1103.00
 99.67    1157.00
 99.77    1288.00
 99.87    1369.23
 99.97    1557.00
100.07    1592.00
100.17    1770.00
100.27    1789.84
100.37    1903.00
100.47    2007.00
100.57    2119.53
100.67    2005.00
100.77    2076.00
100.87    2078.64
100.97    1951.08
101.07    1955.00
101.17    1918.00
101.27    1815.00
101.37    1649.62
101.47    1652.74
101.57    1544.16
101.67    1504.90
101.77    1409.34
101.87    1297.00
101.97    1208.18
102.07    1203.00
102.17    1141.00
102.27    1166.25
102.37    1073.90
102.47    1147.00
102.57    1071.00
102.67    1020.00
102.77     977.00
102.87    1049.00
102.97     977.00
103.07     970.50
103.17     897.00
103.27     808.00
103.37     856.52
103.47     813.00
103.57     755.62
103.67     672.00
103.77     740.00
103.87     629.00
103.97     606.91
104.07     619.68
104.17     566.00
104.27     556.00
104.37     535.00
104.47     569.00
104.57     554.73
104.67     550.00
104.77     594.00
104.87     622.00
104.97     553.77
105.07     535.00
105.17     536.00
105.27     515.72
105.37     551.00
105.47     555.00
105.57     545.00
105.67     548.46
105.77     527.00
105.87     557.23
105.97     565.68
106.07     565.14
106.17     572.00
106.27     587.00
106.37     638.00
106.47     626.41
106.57     638.80
106.67     652.52
106.77     635.10
106.87     619.00
106.97     642.28
107.07     715.59
107.17     702.67
107.27     713.06
107.37     661.00
107.47     686.00
107.57     718.12
107.67     723.00
107.77     664.00
107.87     699.00
107.97     703.00
108.07     642.00
108.17     646.00
108.27     685.00
108.37     603.00
108.47     663.63
108.57     688.00
108.67     737.00
108.77     676.00
108.87     735.00
108.97     683.00
109.07     715.00
109.17     679.74
109.27     669.27
109.37     648.00
109.47     633.03
109.57     648.54
109.67     668.53
109.77     634.51
109.87     639.00
109.97     662.00
110.07     584.00
110.17     622.00
110.27     588.00
110.37     559.00
110.47     537.28
110.57     523.00
110.67     496.38
110.77     533.00
110.87     568.00
110.97     579.00
111.07     533.56
111.17     535.94
111.27     536.00
111.37     530.00
111.47     560.00
111.57     497.00
111.67     553.92
111.77     561.84
111.87     545.71
111.97     615.00
112.07     599.87
112.17     606.00
112.27     538.00
112.37     534.10
112.47     565.00
112.57     565.00
112.67     585.00
112.77     618.00
112.87     590.00
112.97     616.00
113.07     619.75
113.17     675.00
113.27     728.11
113.37     733.20
113.47     744.00
113.57     749.00
113.67     818.00
113.77     843.00
113.87     950.56
113.97     906.00
114.07    1048.00
114.17    1070.00
114.27    1065.24
114.37    1141.00
114.47    1322.00
114.57    1405.98
114.67    1462.01
114.77    1722.00
114.87    1906.00
114.97    2195.00
115.07    2291.62
115.17    2589.20
115.27    2935.00
115.37    3145.00
115.47    3429.05
115.57    3790.00
115.67    4206.00
115.77    4471.00
115.87    4822.00
115.97    5190.00
116.07    5551.00
116.17    6186.00
116.27    6204.00
116.37    6479.07
116.47    6777.17
116.57    6880.00
116.67    6866.00
116.77    6984.00
116.87    6802.00
116.97    6566.16
117.07    6495.00
117.17    5871.00
117.27    5666.00
117.37    5496.35
117.47    4865.00
117.57    4542.00
117.67    4250.00
117.77    3955.00
117.87    3621.00
117.97    3065.56
118.07    2900.00
118.17    2635.00
118.27    2229.00
118.37    2036.00
118.47    1809.00
118.57    1670.59
118.67    1370.00
118.77    1341.44
118.87    1169.00
118.97    1095.00
119.07    1029.00
119.17     841.00
119.27     804.70
119.37     760.00
119.47     751.00
119.57     736.00
119.67     686.00
119.77     675.00
119.87     653.00
119.97     628.74
120.07     598.00
120.17     644.04
120.27     560.92
120.37     583.00
120.47     570.00
120.57     581.00
120.67     572.93
120.77     606.00
120.87     565.00
120.97     547.00
121.07     592.00
121.17     567.00
121.27     554.00
121.37     590.00
121.47     570.00
121.57     557.00
121.67     578.00
121.77     586.00
121.87     607.00
121.97     622.00
122.07     638.00
122.17     616.95
122.27     581.00
122.37     627.41
122.47     647.00
122.57     603.00
122.67     611.00
122.77     681.00
122.87     601.55
122.97     639.68
123.07     656.00
123.17     655.47
123.27     664.00
123.37     638.78
123.47     649.00
123.57     646.00
123.67     593.12
123.77     620.00
123.87     630.00
123.97     640.70
124.07     585.68
124.17     547.00
124.27     617.00
124.37     590.00
124.47     622.00
124.57     592.00
124.67     594.00
124.77     573.36
124.87     575.00
124.97     608.00
