  9.97     673.49
 10.07     752.00
 10.17     705.47
 10.27     702.38
 10.37     708.00
 10.47     737.00
 10.57     690.00
 10.67     687.64
 10.77     695.00
 10.87     671.63
 10.97     747.97
 11.07     713.00
 11.17     713.00
 11.27     717.00
 11.37     717.00
 11.47     726.26
 11.57     649.84
 11.67     761.00
 11.77     739.00
 11.87     735.69
 11.97     691.22
 12.07     815.00
 12.17     818.25
 12.27     824.56
 12.37     819.30
 12.47     802.00
 12.57     771.16
 12.67     740.00
 12.77     720.00
 12.87     643.66
 12.97     689.00
 13.07     692.34
 13.17     668.65
 13.27     671.00
 13.37     669.00
 13.47     639.00
 13.57     627.60
 13.67     688.89
 13.77     714.00
 13.87     669.39
 13.97     664.00
 14.07     696.00
 14.17     667.00
 14.27     707.12
 14.37     709.00
 14.47     687.00
 14.57     649.00
 14.67     636.00
 14.77     619.45
 14.87     651.00
 14.97     636.64
 15.07     686.20
 15.17     632.00
 15.27     659.00
 15.37     626.00
 15.47     645.00
 15.57     600.00
 15.67     702.37
 15.77     650.87
 15.87     612.88
 15.97     646.00
 16.07     655.60
 16.17     644.00
 16.27     623.83
 16.37     700.25
 16.47     664.88
 16.57     686.25
 16.67     664.00
 16.77     664.54
 16.87     655.29
 16.97     585.00
 17.07     654.42
 17.17     681.80
 17.27     630.01
 17.37     661.00
 17.47     599.07
 17.57     635.00
 17.67     590.80
 17.77     691.30
 17.87     620.02
 17.97     620.00
 18.07     671.42
 18.17     600.00
 18.27     606.00
 18.37     621.00
 18.47     631.00
 18.57     629.00
 18.67     662.24
 18.77     649.00
 18.87     639.64
 18.97     569.00
 19.07     656.33
 19.17     650.00
 19.27     624.98
 19.37     612.18
 19.47     588.00
 19.57     610.00
 19.67     593.00
 19.77     624.68
 19.87     617.89
 19.97     572.00
 20.07     607.00
 20.17     602.66
 20.27     595.68
 20.37     606.10
 20.47     587.85
 20.57     607.00
 20.67     606.41
 20.77     598.00
 20.87     646.00
 20.97     597.00
 21.07     609.00
 21.17     674.21
 21.27     582.00
 21.37     627.00
 21.47     636.00
 21.57     618.00
 21.67     645.00
 21.77     627.00
 21.87     600.00
 21.97     596.00
 22.07     615.00
 22.17     601.80
 22.27     595.00
 22.37     639.00
 22.47     648.07
 22.57     590.00
 22.67     603.00
 22.77     599.00
 22.87     623.00
 22.97     637.00
 23.07     656.08
 23.17     591.52
 23.27     621.00
 23.37     657.00
 23.47     611.38
 23.57     605.40
 23.67     609.00
 23.77     641.00
 23.87     621.00
 23.97     590.26
 24.07     668.00
 24.17     617.00
 24.27     651.00
 24.37     653.00
 24.47     630.00
 24.57     690.11
 24.67     685.72
 24.77     672.00
 24.87     671.40
 24.97     746.00
 25.07     706.00
 25.17     676.63
 25.27     644.00
 25.37     667.73
 25.47     665.00
 25.57     663.00
 25.67     630.00
 25.77     659.00
 25.87     609.00
 25.97     597.00
 26.07     590.09
 26.17     677.00
 26.27     630.00
 26.37     663.79
 26.47     646.00
 26.57     692.00
 26.67     618.00
 26.77     667.00
 26.87     696.00
 26.97     663.00
 27.07     652.00
 27.17     689.10
 27.27     679.00
 27.37     698.36
 27.47     759.58
 27.57     801.00
 27.67     823.00
 27.77     920.00
 27.87    1056.04
 27.97    1305.00
 28.07    1847.00
 28.17    3407.77
 28.27    5186.32
 28.37    6631.00
 28.47    7404.00
 28.57    6706.00
 28.67    4866.00
 28.77    3553.00
 28.87    3139.00
 28.97    3315.60
 29.07    3944.00
 29.17    4193.69
 29.27    3555.13
 29.37    2824.02
 29.47    1931.61
 29.57    1398.00
 29.67    1051.00
 29.77     965.00
 29.87     837.00
 29.97     824.00
 30.07     817.00
 30.17     669.31
 30.27     705.54
 30.37     694.52
 30.47     621.70
 30.57     623.62
 30.67     692.58
 30.77     702.00
 30.87     710.00
 30.97     684.94
 31.07     708.69
 31.17     773.00
 31.27     729.08
 31.37     695.40
 31.47     718.00
 31.57     668.53
 31.67     689.00
 31.77     715.00
 31.87     639.00
 31.97     642.00
 32.07     694.00
 32.17     653.00
 32.27     649.00
 32.37     621.11
 32.47     645.00
 32.57     576.69
 32.67     651.00
 32.77     666.00
 32.87     643.00
 32.97     662.00
 33.07     655.00
 33.17     663.00
 33.27     620.88
 33.37     650.00
 33.47     586.94
 33.57     667.52
 33.67     606.22
 33.77     691.00
 33.87     739.00
 33.97     905.99
 34.07     931.99
 34.17    1073.31
 34.27    1227.01
 34.37    1156.52
 34.47    1070.00
 34.57    1012.00
 34.67     849.29
 34.77     732.00
 34.87     724.35
 34.97     612.94
 35.07     669.43
 35.17     653.00
 35.27     649.13
 35.37     624.00
 35.47     612.98
 35.57     613.00
 35.67     646.00
 35.77     611.17
 35.87     630.95
 35.97     595.47
 36.07     646.00
 36.17     571.00
 36.27     628.00
 36.37     624.00
 36.47     547.25
 36.57     574.15
 36.67     590.00
 36.77     599.00
 36.87     607.00
 36.97     590.49
 37.07     626.00
 37.17     592.00
 37.27     601.00
 37.37     612.81
 37.47     614.00
 37.57     613.00
 37.67     576.00
 37.77     623.00
 37.87     658.00
 37.97     698.19
 38.07     691.00
 38.17     736.35
 38.27     691.81
 38.37     708.00
 38.47     755.84
 38.57     703.48
 38.67     644.00
 38.77     624.00
 38.87     592.00
 38.97     596.51
 39.07     621.00
 39.17     586.00
 39.27     560.00
 39.37     572.00
 39.47     599.00
 39.57     612.77
 39.67     614.00
 39.77     566.68
 39.87     636.00
 39.97     581.04
 40.07     575.00
 40.17     571.82
 40.27     622.81
 40.37     534.62
 40.47     569.15
 40.57     612.83
 40.67     563.00
 40.77     582.00
 40.87     583.16
 40.97     575.00
 41.07     606.00
 41.17     589.00
 41.27     588.44
 41.37     594.00
 41.47     542.00
 41.57     566.00
 41.67     554.07
 41.77     554.00
 41.87     584.00
 41.97     581.00
 42.07     554.74
 42.17     543.00
 42.27     582.00
 42.37     603.00
 42.47     590.00
 42.57     575.22
 42.67     663.00
 42.77     619.00
 42.87     637.00
 42.97     685.00
 43.07     714.75
 43.17     695.88
 43.27     685.23
 43.37     640.85
 43.47     623.00
 43.57     655.75
 43.67     606.00
 43.77     617.67
 43.87     549.00
 43.97     540.60
 44.07     557.00
 44.17     544.03
 44.27     586.00
 44.37     547.91
 44.47     611.00
 44.57     643.00
 44.67     597.00
 44.77     579.00
 44.87     557.00
 44.97     554.28
 45.07     581.18
 45.17     604.00
 45.27     552.00
 45.37     606.00
 45.47     585.22
 45.57     559.00
 45.67     635.36
 45.77     570.00
 45.87     604.87
 45.97     600.00
 46.07     576.00
 46.17     640.00
 46.27     542.00
 46.37     543.00
 46.47     606.43
 46.57     568.13
 46.67     585.00
 46.77     570.00
 46.87     582.03
 46.97     567.00
 47.07     573.00
 47.17     613.36
 47.27     621.00
 47.37     608.00
 47.47     607.07
 47.57     581.00
 47.67     587.00
 47.77     602.00
 47.87     640.59
 47.97     677.70
 48.07     667.00
 48.17     673.00
 48.27     678.00
 48.37     638.50
 48.47     678.00
 48.57     670.00
 48.67     602.00
 48.77     588.58
 48.87     644.54
 48.97     624.00
 49.07     568.00
 49.17     619.00
 49.27     667.95
 49.37     614.00
 49.47     635.00
 49.57     675.00
 49.67     679.00
 49.77     796.00
 49.87     808.00
 49.97     984.00
 50.07    1176.00
 50.17    1578.00
 50.27    2062.00
 50.37    2572.00
 50.47    2855.00
 50.57    3059.00
 50.67    2928.00
 50.77    2602.00
 50.87    2047.22
 50.97    1693.39
 51.07    1265.00
 51.17    1064.00
 51.27     897.40
 51.37     767.12
 51.47     795.00
 51.57     737.00
 51.67     724.00
 51.77     663.87
 51.87     692.00
 51.97     720.00
 52.07     692.00
 52.17     670.00
 52.27     636.58
 52.37     650.00
 52.47     712.00
 52.57     713.00
 52.67     627.00
 52.77     702.81
 52.87     690.00
 52.97     665.00
 53.07     683.00
 53.17     728.00
 53.27     686.34
 53.37     796.00
 53.47     808.33
 53.57    1000.00
 53.67    1091.00
 53.77    1221.00
 53.87    1271.00
 53.97    1279.82
 54.07    1251.45
 54.17    1184.00
 54.27    1096.70
 54.37     931.00
 54.47     825.41
 54.57     847.02
 54.67     702.00
 54.77     657.29
 54.87     728.91
 54.97     687.00
 55.07     723.00
 55.17     669.00
 55.27     658.00
 55.37     705.00
 55.47     697.00
 55.57     687.00
 55.67     673.00
 55.77     670.00
 55.87     710.00
 55.97     650.00
 56.07     670.00
 56.17     684.00
 56.27     753.77
 56.37     752.00
 56.47     895.32
 56.57     942.00
 56.67    1057.00
 56.77    1286.59
 56.87    1526.00
 56.97    1898.57
 57.07    2193.00
 57.17    2551.00
 57.27    2696.00
 57.37    2550.00
 57.47    2541.00
 57.57    2127.90
 57.67    1858.00
 57.77    1522.00
 57.87    1292.00
 57.97    1059.00
 58.07     940.00
 58.17     894.91
 58.27     768.00
 58.37     827.04
 58.47     784.00
 58.57     831.00
 58.67     898.78
 58.77     949.46
 58.87     963.00
 58.97    1018.00
 59.07    1196.00
 59.17    1209.00
 59.27    1317.00
 59.37    1299.31
 59.47    1326.00
 59.57    1232.00
 59.67    1357.00
 59.77    1286.00
 59.87    1297.00
 59.97    1275.00
 60.07    1234.00
 60.17    1291.00
 60.27    1363.00
 60.37    1361.52
 60.47    1503.00
 60.57    1606.00
 60.67    1583.00
 60.77    1565.00
 60.87    1530.00
 60.97    1350.00
 61.07    1279.29
 61.17    1107.00
 61.27     932.63
 61.37     860.00
 61.47     869.00
 61.57     846.79
 61.67     804.00
 61.77     855.96
 61.87     868.40
 61.97     869.00
 62.07    1054.89
 62.17    1158.00
 62.27    1270.00
 62.37    1400.00
 62.47    1581.00
 62.57    1661.95
 62.67    1776.67
 62.77    1648.00
 62.87    1530.00
 62.97    1453.00
 63.07    1196.47
 63.17    1049.00
 63.27     943.00
 63.37     918.69
 63.47     802.00
 63.57     757.00
 63.67     691.68
 63.77     711.92
 63.87     757.00
 63.97     647.71
 64.07     706.38
 64.17     734.00
 64.27     731.80
 64.37     796.00
 64.47     850.75
 64.57     972.70
 64.67    1039.00
 64.77    1094.00
 64.87    1242.00
 64.97    1337.00
 65.07    1343.51
 65.17    1414.79
 65.27    1498.22
 65.37    1562.00
 65.47    1390.00
 65.57    1255.00
 65.67    1177.00
 65.77    1064.00
 65.87     918.00
 65.97     916.68
 66.07     797.79
 66.17     809.34
 66.27     760.00
 66.37     690.38
 66.47     738.92
 66.57     745.02
 66.67     655.00
 66.77     677.00
 66.87     612.00
 66.97     611.00
 67.07     649.00
 67.17     680.77
 67.27     750.43
 67.37     701.47
 67.47     775.05
 67.57     844.00
 67.67     840.00
 67.77     904.00
 67.87    1040.00
 67.97    1179.00
 68.07    1426.00
 68.17    1664.00
 68.27    1955.66
 68.37    2123.74
 68.47    2412.31
 68.57    2516.00
 68.67    2559.00
 68.77    2385.00
 68.87    2377.00
 68.97    2000.53
 69.07    1863.00
 69.17    1546.79
 69.27    1339.00
 69.37    1155.00
 69.47    1059.00
 69.57     842.87
 69.67     880.99
 69.77     799.00
 69.87     800.00
 69.97     709.53
 70.07     738.09
 70.17     712.00
 70.27     640.35
 70.37     745.00
 70.47     698.00
 70.57     659.00
 70.67     625.13
 70.77     683.73
 70.87     690.00
 70.97     711.00
 71.07     674.00
 71.17     641.01
 71.27     703.00
 71.37     710.00
 71.47     746.00
 71.57     837.00
 71.67     842.00
 71.77     901.68
 71.87    1013.00
 71.97    1145.00
 72.07    1262.12
 72.17    1387.95
 72.27    1698.44
 72.37    1734.00
 72.47    1902.00
 72.57    1953.00
 72.67    1979.88
 72.77    1898.00
 72.87    1875.11
 72.97    1729.19
 73.07    1424.88
 73.17    1335.00
 73.27    1198.00
 73.37    1022.00
 73.47     963.83
 73.57     866.00
 73.67     847.00
 73.77     769.00
 73.87     722.00
 73.97     699.00
 74.07     695.00
 74.17     678.00
 74.27     680.27
 74.37     632.00
 74.47     647.00
 74.57     646.00
 74.67     595.00
 74.77     663.00
 74.87     644.00
 74.97     700.00
 75.07     664.00
 75.17     688.00
 75.27     635.00
 75.37     679.94
 75.47     746.00
 75.57     732.00
 75.67     668.00
 75.77     686.00
 75.87     735.00
 75.97     660.00
 76.07     640.00
 76.17     659.86
 76.27     622.00
 76.37     726.00
 76.47     734.98
 76.57     798.01
 76.67     803.00
 76.77     828.22
 76.87     894.00
 76.97     977.94
 77.07     965.00
 77.17     979.00
 77.27     982.00
 77.37     947.11
 77.47     945.00
 77.57     890.00
 77.67     864.00
 77.77     801.00
 77.87     776.22
 77.97     697.38
 78.07     693.00
 78.17     666.31
 78.27     638.84
 78.37     605.00
 78.47     636.00
 78.57     659.59
 78.67     601.00
 78.77     579.00
 78.87     633.28
 78.97     645.00
 79.07     561.17
 79.17     621.49
 79.27     622.00
 79.37     563.92
 79.47     603.00
 79.57     649.90
 79.67     593.00
 79.77     612.00
 79.87     618.00
 79.97     648.00
 80.07     627.00
 80.17     608.00
 80.27     623.00
 80.37     605.00
 80.47     675.00
 80.57     698.84
 80.67     770.21
 80.77     768.00
 80.87     815.00
 80.97     889.83
 81.07     952.00
 81.17    1000.35
 81.27    1164.00
 81.37    1115.54
 81.47    1289.00
 81.57    1309.93
 81.67    1343.00
 81.77    1322.30
 81.87    1296.08
 81.97    1331.09
 82.07    1202.72
 82.17    1206.02
 82.27    1194.00
 82.37    1075.52
 82.47    1015.00
 82.57     961.51
 82.67     891.63
 82.77     883.00
 82.87     772.00
 82.97     787.24
 83.07     745.12
 83.17     733.00
 83.27     760.56
 83.37     650.00
 83.47     659.75
 83.57     565.00
 83.67     585.00
 83.77     634.00
 83.87     625.00
 83.97     629.00
 84.07     687.97
 84.17     652.00
 84.27     594.00
 84.37     662.00
 84.47     663.00
 84.57     606.00
 84.67     722.20
 84.77     609.00
 84.87     712.93
 84.97     589.00
 85.07     644.00
 85.17     577.00
 85.27     610.05
 85.37     587.93
 85.47     633.00
 85.57     583.55
 85.67     629.00
 85.77     568.00
 85.87     660.00
 85.97     629.00
 86.07     574.00
 86.17     623.86
 86.27     613.63
 86.37     607.00
 86.47     623.00
 86.57     604.00
 86.67     636.00
 86.77     663.00
 86.87     594.41
 86.97     626.73
 87.07     595.32
 87.17     702.00
 87.27     680.19
 87.37     680.00
 87.47     676.78
 87.57     678.75
 87.67     760.00
 87.77     722.00
 87.87     717.37
 87.97     688.51
 88.07     734.00
 88.17     754.00
 88.27     676.69
 88.37     733.76
 88.47     657.00
 88.57     702.00
 88.67     715.00
 88.77     650.00
 88.87     660.00
 88.97     668.00
 89.07     690.00
 89.17     610.84
 89.27     691.00
 89.37     617.00
 89.47     653.00
 89.57     666.04
 89.67     699.09
 89.77     688.75
 89.87     659.00
 89.97     636.00
 90.07     636.09
 90.17     635.00
 90.27     660.89
 90.37     632.00
 90.47     647.00
 90.57     621.00
 90.67     662.50
 90.77     606.00
 90.87     672.69
 90.97     638.54
 91.07     574.51
 91.17     561.74
 91.27     556.00
 91.37     628.32
 91.47     624.44
 91.57     625.00
 91.67     592.00
 91.77     548.57
 91.87     591.66
 91.97     592.00
 92.07     565.00
 92.17     612.00
 92.27     574.50
 92.37     563.40
 92.47     642.00
 92.57     633.84
 92.67     618.75
 92.77     653.00
 92.87     640.00
 92.97     703.00
 93.07     652.00
 93.17     674.00
 93.27     671.00
 93.37     695.00
 93.47     686.52
 93.57     725.00
 93.67     728.00
 93.77     724.90
 93.87     837.08
 93.97     824.00
 94.07     842.00
 94.17     878.23
 94.27     806.98
 94.37     879.31
 94.47     884.00
 94.57     910.00
 94.67     942.00
 94.77     905.62
 94.87     891.00
 94.97     947.00
 95.07    1034.00
 95.17    1038.11
 95.27     977.00
 95.37    1006.00
 95.47    1020.00
 95.57     996.00
 95.67    1057.68
 95.77    1037.00
 95.87     978.37
 95.97    1003.00
 96.07     911.00
 96.17     876.00
 96.27     861.00
 96.37     954.00
 96.47     843.16
 96.57     851.00
 96.67     826.00
 96.77     818.00
 96.87     752.56
 96.97     839.00
 97.07     794.01
 97.17     891.00
 97.27     927.74
 97.37     996.00
 97.47    1094.00
 97.57    1060.65
 97.67    1123.91
 97.77    1313.00
 97.87    1362.51
 97.97    1376.00
 98.07    1445.00
 98.17    1506.31
 98.27    1559.28
 98.37    1561.82
 98.47    1662.00
 98.57    1556.00
 98.67    1490.00
 98.77    1472.00
 98.87    1384.00
 98.97    1302.47
 99.07    1322.59
 99.17    1280.00
 99.27    1138.59
 99.37    1133.00
 99.47    1079.34
 99.57    1101.46
 99.67     959.00
 99.77    1003.00
 99.87     960.00
 99.97    1058.39
100.07     999.00
100.17    1092.00
100.27    1043.61
100.37    1200.00
100.47    1258.00
100.57    1335.00
100.67    1311.93
100.77    1452.00
100.87    1520.39
100.97    1606.64
101.07    1781.00
101.17    1838.00
101.27    1858.85
101.37    2057.00
101.47    2015.09
101.57    2129.00
101.67    2234.00
101.77    2104.00
101.87    2169.67
101.97    2094.23
102.07    2080.60
102.17    1963.00
102.27    1908.00
102.37    1820.84
102.47    1628.00
102.57    1788.46
102.67    1543.00
102.77    1645.43
102.87    1435.00
102.97    1418.26
103.07    1312.00
103.17    1414.87
103.27    1274.00
103.37    1332.00
103.47    1236.00
103.57    1204.67
103.67    1175.00
103.77    1166.34
103.87    1220.44
103.97    1100.00
104.07    1006.00
104.17    1039.00
104.27     972.00
104.37     961.00
104.47     921.00
104.57     844.00
104.67     801.00
104.77     811.00
104.87     766.00
104.97     743.07
105.07     750.00
105.17     693.00
105.27     705.00
105.37     671.96
105.47     647.00
105.57     691.00
105.67     619.00
105.77     641.00
105.87     596.00
105.97     556.86
106.07     623.00
106.17     597.00
106.27     618.00
106.37     632.84
106.47     561.38
106.57     612.00
106.67     628.05
106.77     664.38
106.87     646.52
106.97     650.00
107.07     636.00
107.17     666.00
107.27     723.77
107.37     700.00
107.47     729.00
107.57     752.00
107.67     714.63
107.77     690.47
107.87     764.00
107.97     702.95
108.07     706.00
108.17     751.00
108.27     760.00
108.37     753.20
108.47     685.00
108.57     750.00
108.67     807.00
108.77     821.42
108.87     773.20
108.97     771.00
109.07     753.00
109.17     761.00
109.27     774.00
109.37     735.00
109.47     746.69
109.57     827.32
109.67     691.00
109.77     823.71
109.87     814.41
109.97     777.00
110.07     815.21
110.17     795.86
110.27     793.40
110.37     722.00
110.47     770.78
110.57     768.00
110.67     696.77
110.77     673.71
110.87     699.00
110.97     719.00
111.07     684.91
111.17     682.00
111.27     671.00
111.37     615.56
111.47     649.66
111.57     628.80
111.67     623.00
111.77     609.13
111.87     596.00
111.97     658.73
112.07     640.00
112.17     624.00
112.27     617.05
112.37     564.46
112.47     620.00
112.57     565.87
112.67     574.00
112.77     557.00
112.87     623.00
112.97     612.14
113.07     571.00
113.17     592.00
113.27     622.79
113.37     579.45
113.47     628.00
113.57     666.00
113.67     612.00
113.77     652.00
113.87     639.00
113.97     648.00
114.07     592.00
114.17     679.55
114.27     658.00
114.37     696.00
114.47     694.73
114.57     696.00
114.67     723.00
114.77     749.00
114.87     785.00
114.97     781.74
115.07     906.71
115.17     868.00
115.27     999.00
115.37    1046.00
115.47    1160.00
115.57    1269.00
115.67    1447.23
115.77    1529.00
115.87    1689.00
115.97    1974.00
116.07    2153.00
116.17    2390.00
116.27    2768.00
116.37    3014.00
116.47    3421.71
116.57    3580.00
116.67    3900.00
116.77    4449.29
116.87    4929.00
116.97    5206.77
117.07    5500.00
117.17    6109.13
117.27    6254.00
117.37    6575.30
117.47    6959.00
117.57    7150.28
117.67    7461.00
117.77    7538.70
117.87    7490.00
117.97    7559.00
118.07    7390.93
118.17    7021.00
118.27    6918.00
118.37    6588.00
118.47    6338.00
118.57    5954.00
118.67    5733.00
118.77    5391.00
118.87    4951.00
118.97    4588.00
119.07    4318.00
119.17    3862.72
119.27    3487.00
119.37    3277.00
119.47    2855.00
119.57    2641.00
119.67    2366.00
119.77    2014.24
119.87    1918.09
119.97    1770.00
120.07    1521.40
120.17    1480.42
120.27    1372.90
120.37    1261.00
120.47    1185.00
120.57    1122.43
120.67     947.07
120.77     974.95
120.87     856.00
120.97     880.00
121.07     881.00
121.17     853.76
121.27     846.00
121.37     773.00
121.47     781.00
121.57     709.00
121.67     739.10
121.77     701.00
121.87     681.51
121.97     697.00
122.07     653.00
122.17     717.00
122.27     663.00
122.37     715.27
122.47     675.00
122.57     645.62
122.67     660.92
122.77     654.00
122.87     667.00
122.97     675.00
123.07     733.00
123.17     662.00
123.27     711.71
123.37     704.54
123.47     719.00
123.57     732.00
123.67     792.00
123.77     749.00
123.87     811.00
123.97     757.00
124.07     774.37
124.17     754.00
124.27     784.34
124.37     777.00
124.47     823.00
124.57     736.00
124.67     794.00
124.77     776.00
124.87     749.80
124.97     791.00
