  9.97     634.00
 10.07     591.11
 10.17     634.00
 10.27     572.00
 10.37     563.00
 10.47     589.00
 10.57     583.00
 10.67     606.00
 10.77     545.00
 10.87     584.00
 10.97     579.00
 11.07     554.00
 11.17     593.00
 11.27     548.88
 11.37     612.00
 11.47     603.00
 11.57     581.46
 11.67     557.24
 11.77     641.00
 11.87     591.30
 11.97     663.00
 12.07     681.00
 12.17     680.00
 12.27     707.00
 12.37     665.00
 12.47     609.73
 12.57     602.00
 12.67     563.63
 12.77     551.83
 12.87     555.49
 12.97     551.04
 13.07     577.77
 13.17     543.00
 13.27     550.00
 13.37     518.00
 13.47     521.00
 13.57     560.00
 13.67     601.48
 13.77     529.68
 13.87     521.00
 13.97     562.00
 14.07     560.30
 14.17     591.65
 14.27     536.00
 14.37     538.02
 14.47     523.51
 14.57     578.00
 14.67     535.82
 14.77     574.00
 14.87     567.00
 14.97     573.00
 15.07     562.59
 15.17     556.80
 15.27     569.00
 15.37     549.00
 15.47     543.17
 15.57     598.33
 15.67     560.00
 15.77     542.00
 15.87     565.00
 15.97     529.18
 16.07     546.00
 16.17     528.17
 16.27     594.22
 16.37     533.00
 16.47     549.00
 16.57     507.00
 16.67     555.00
 16.77     546.00
 16.87     564.52
 16.97     532.00
 17.07     515.00
 17.17     550.00
 17.27     547.56
 17.37     585.00
 17.47     580.33
 17.57     579.88
 17.67     549.00
 17.77     574.00
 17.87     564.00
 17.97     611.00
 18.07     542.00
 18.17     554.00
 18.27     599.00
 18.37     545.00
 18.47     550.00
 18.57     583.00
 18.67     567.00
 18.77     563.00
 18.87     559.00
 18.97     521.00
 19.07     554.72
 19.17     581.00
 19.27     564.00
 19.37     550.00
 19.47     533.20
 19.57     589.13
 19.67     567.00
 19.77     530.00
 19.87     564.00
 19.97     516.00
 20.07     564.13
 20.17     520.00
 20.27     527.70
 20.37     586.24
 20.47     573.00
 20.57     589.87
 20.67     586.39
 20.77     572.00
 20.87     534.28
 20.97     605.41
 21.07     577.88
 21.17     605.00
 21.27     519.64
 21.37     545.00
 21.47     597.77
 21.57     570.00
 21.67     540.92
 21.77     538.00
 21.87     588.09
 21.97     574.69
 22.07     581.00
 22.17     530.00
 22.27     564.00
 22.37     550.71
 22.47     565.72
 22.57     581.00
 22.67     525.00
 22.77     538.00
 22.87     514.26
 22.97     553.50
 23.07     591.00
 23.17     538.00
 23.27     580.28
 23.37     562.84
 23.47     552.00
 23.57     550.00
 23.67     537.00
 23.77     572.00
 23.87     544.00
 23.97     569.00
 24.07     519.00
 24.17     517.46
 24.27     568.24
 24.37     529.80
 24.47     606.00
 24.57     614.19
 24.67     650.00
 24.77     674.84
 24.87     640.28
 24.97     637.00
 25.07     661.54
 25.17     641.74
 25.27     628.48
 25.37     577.00
 25.47     611.00
 25.57     536.19
 25.67     522.73
 25.77     546.00
 25.87     541.93
 25.97     559.32
 26.07     547.00
 26.17     606.00
 26.27     529.00
 26.37     582.00
 26.47     506.51
 26.57     580.00
 26.67     509.23
 26.77     549.00
 26.87     543.00
 26.97     589.00
 27.07     589.00
 27.17     534.55
 27.27     586.00
 27.37     565.00
 27.47     618.00
 27.57     575.00
 27.67     604.00
 27.77     564.00
 27.87     630.00
 27.97     627.00
 28.07     779.00
 28.17     829.00
 28.27     959.87
 28.37     890.00
 28.47     836.14
 28.57     838.30
 28.67     773.00
 28.77     760.00
 28.87     740.00
 28.97     817.00
 29.07     792.00
 29.17     799.00
 29.27     654.00
 29.37     673.00
 29.47     655.00
 29.57     600.00
 29.67     611.00
 29.77     563.18
 29.87     572.00
 29.97     559.90
 30.07     552.97
 30.17     585.17
 30.27     620.00
 30.37     536.84
 30.47     572.00
 30.57     564.00
 30.67     571.39
 30.77     570.92
 30.87     612.86
 30.97     609.00
 31.07     638.00
 31.17     606.00
 31.27     582.17
 31.37     602.00
 31.47     593.00
 31.57     569.00
 31.67     551.00
 31.77     519.00
 31.87     545.69
 31.97     516.25
 32.07     596.00
 32.17     515.00
 32.27     547.42
 32.37     577.00
 32.47     549.00
 32.57     556.27
 32.67     492.90
 32.77     563.00
 32.87     512.78
 32.97     514.00
 33.07     533.00
 33.17     536.06
 33.27     539.00
 33.37     588.88
 33.47     627.00
 33.57     613.00
 33.67     594.00
 33.77     687.24
 33.87     807.00
 33.97     907.00
 34.07    1032.16
 34.17    1034.00
 34.27     993.05
 34.37     852.00
 34.47     761.22
 34.57     647.33
 34.67     603.00
 34.77     562.00
 34.87     524.56
 34.97     520.00
 35.07     548.00
 35.17     543.42
 35.27     548.22
 35.37     540.58
 35.47     552.02
 35.57     525.00
 35.67     521.00
 35.77     532.00
 35.87     515.00
 35.97     511.00
 36.07     541.00
 36.17     491.00
 36.27     517.00
 36.37     511.49
 36.47     487.97
 36.57     535.00
 36.67     509.00
 36.77     520.32
 36.87     485.00
 36.97     509.00
 37.07     479.00
 37.17     490.57
 37.27     489.00
 37.37     504.75
 37.47     511.06
 37.57     462.00
 37.67     555.03
 37.77     541.00
 37.87     523.00
 37.97     521.11
 38.07     524.94
 38.17     529.00
 38.27     457.00
 38.37     487.00
 38.47     513.00
 38.57     488.00
 38.67     504.79
 38.77     503.00
 38.87     517.00
 38.97     477.00
 39.07     504.00
 39.17     482.89
 39.27     462.97
 39.37     454.47
 39.47     453.00
 39.57     464.03
 39.67     507.24
 39.77     462.00
 39.87     480.86
 39.97     506.00
 40.07     500.25
 40.17     480.75
 40.27     496.00
 40.37     480.00
 40.47     465.00
 40.57     491.00
 40.67     494.00
 40.77     447.00
 40.87     499.00
 40.97     489.00
 41.07     537.00
 41.17     484.00
 41.27     458.04
 41.37     461.00
 41.47     497.00
 41.57     470.91
 41.67     491.00
 41.77     538.99
 41.87     490.00
 41.97     513.00
 42.07     481.00
 42.17     473.43
 42.27     481.00
 42.37     543.00
 42.47     491.00
 42.57     510.00
 42.67     576.00
 42.77     552.00
 42.87     568.43
 42.97     539.00
 43.07     603.44
 43.17     562.00
 43.27     490.70
 43.37     525.00
 43.47     508.00
 43.57     489.00
 43.67     504.00
 43.77     467.89
 43.87     473.00
 43.97     528.00
 44.07     503.00
 44.17     512.00
 44.27     477.00
 44.37     468.18
 44.47     523.88
 44.57     480.00
 44.67     489.00
 44.77     471.00
 44.87     514.00
 44.97     485.14
 45.07     518.67
 45.17     486.17
 45.27     482.02
 45.37     543.00
 45.47     473.00
 45.57     531.72
 45.67     497.10
 45.77     506.76
 45.87     479.00
 45.97     510.71
 46.07     450.40
 46.17     537.12
 46.27     528.24
 46.37     507.37
 46.47     485.00
 46.57     513.66
 46.67     514.71
 46.77     469.00
 46.87     451.52
 46.97     488.00
 47.07     517.00
 47.17     502.76
 47.27     490.00
 47.37     476.41
 47.47     531.00
 47.57     556.00
 47.67     572.00
 47.77     579.00
 47.87     613.61
 47.97     569.00
 48.07     539.00
 48.17     575.00
 48.27     553.00
 48.37     547.36
 48.47     519.00
 48.57     552.90
 48.67     515.00
 48.77     537.93
 48.87     516.00
 48.97     507.00
 49.07     530.00
 49.17     556.00
 49.27     547.00
 49.37     530.07
 49.47     611.00
 49.57     666.00
 49.67     736.11
 49.77     802.04
 49.87    1055.58
 49.97    1269.68
 50.07    1689.17
 50.17    2040.00
 50.27    2265.00
 50.37    2301.00
 50.47    2156.00
 50.57    1883.00
 50.67    1534.65
 50.77    1163.00
 50.87     854.00
 50.97     755.07
 51.07     722.78
 51.17     611.47
 51.27     615.00
 51.37     545.87
 51.47     607.00
 51.57     507.00
 51.67     600.76
 51.77     575.00
 51.87     563.00
 51.97     616.00
 52.07     520.90
 52.17     577.00
 52.27     546.71
 52.37     574.48
 52.47     529.85
 52.57     562.00
 52.67     585.09
 52.77     578.00
 52.87     589.54
 52.97     606.00
 53.07     668.11
 53.17     746.00
 53.27     813.00
 53.37     957.45
 53.47     991.00
 53.57    1091.24
 53.67    1120.00
 53.77    1182.88
 53.87    1086.00
 53.97     981.00
 54.07     824.47
 54.17     827.36
 54.27     703.06
 54.37     619.66
 54.47     601.00
 54.57     578.43
 54.67     581.00
 54.77     535.68
 54.87     559.00
 54.97     506.16
 55.07     583.00
 55.17     521.82
 55.27     550.40
 55.37     565.24
 55.47     625.00
 55.57     543.43
 55.67     601.80
 55.77     534.19
 55.87     571.73
 55.97     640.00
 56.07     718.00
 56.17     629.00
 56.27     753.00
 56.37     799.00
 56.47    1046.00
 56.57    1320.00
 56.67    1647.55
 56.77    1939.00
 56.87    2219.00
 56.97    2390.70
 57.07    2499.00
 57.17    2388.00
 57.27    2210.00
 57.37    1824.00
 57.47    1460.43
 57.57    1201.00
 57.67    1018.30
 57.77     896.00
 57.87     834.38
 57.97     763.00
 58.07     695.00
 58.17     666.45
 58.27     715.12
 58.37     747.00
 58.47     750.00
 58.57     828.00
 58.67     898.19
 58.77    1067.01
 58.87    1122.00
 58.97    1163.75
 59.07    1238.00
 59.17    1211.23
 59.27    1291.00
 59.37    1291.00
 59.47    1269.94
 59.57    1235.00
 59.67    1142.06
 59.77    1182.00
 59.87    1173.80
 59.97    1222.00
 60.07    1299.00
 60.17    1427.00
 60.27    1485.54
 60.37    1590.00
 60.47    1431.01
 60.57    1417.79
 60.67    1341.00
 60.77    1198.00
 60.87     995.72
 60.97     913.00
 61.07     783.83
 61.17     749.00
 61.27     687.00
 61.37     691.00
 61.47     647.00
 61.57     744.36
 61.67     734.66
 61.77     829.00
 61.87     965.00
 61.97     990.00
 62.07    1084.00
 62.17    1265.00
 62.27    1286.00
 62.37    1268.00
 62.47    1251.03
 62.57    1255.98
 62.67    1056.01
 62.77     953.00
 62.87     821.00
 62.97     804.00
 63.07     661.22
 63.17     608.00
 63.27     620.81
 63.37     568.00
 63.47     587.00
 63.57     601.00
 63.67     549.74
 63.77     583.99
 63.87     610.00
 63.97     653.00
 64.07     693.00
 64.17     728.00
 64.27     735.00
 64.37     769.00
 64.47     831.00
 64.57     902.00
 64.67     891.05
 64.77     972.67
 64.87    1026.00
 64.97     979.00
 65.07     948.19
 65.17     912.00
 65.27     841.00
 65.37     759.00
 65.47     726.00
 65.57     747.23
 65.67     656.00
 65.77     610.46
 65.87     616.00
 65.97     581.00
 66.07     583.00
 66.17     575.83
 66.27     559.00
 66.37     589.00
 66.47     548.00
 66.57     599.31
 66.67     526.69
 66.77     568.00
 66.87     605.00
 66.97     616.00
 67.07     610.00
 67.17     652.00
 67.27     737.86
 67.37     751.00
 67.47     788.00
 67.57     972.00
 67.67    1161.00
 67.77    1431.00
 67.87    1495.00
 67.97    1758.44
 68.07    2017.00
 68.17    2233.00
 68.27    2299.82
 68.37    2307.00
 68.47    2278.00
 68.57    2042.00
 68.67    1851.00
 68.77    1608.00
 68.87    1275.65
 68.97    1055.02
 69.07     963.00
 69.17     799.70
 69.27     721.00
 69.37     639.96
 69.47     666.00
 69.57     676.00
 69.67     569.00
 69.77     571.98
 69.87     572.00
 69.97     583.00
 70.07     574.00
 70.17     576.00
 70.27     538.00
 70.37     599.00
 70.47     548.56
 70.57     581.26
 70.67     532.37
 70.77     548.00
 70.87     638.00
 70.97     635.00
 71.07     675.00
 71.17     676.00
 71.27     763.76
 71.37     824.63
 71.47     842.00
 71.57    1039.08
 71.67    1077.00
 71.77    1275.00
 71.87    1318.00
 71.97    1588.04
 72.07    1758.00
 72.17    1789.00
 72.27    1796.27
 72.37    1739.00
 72.47    1769.00
 72.57    1651.00
 72.67    1378.57
 72.77    1379.00
 72.87    1196.00
 72.97     974.00
 73.07     863.00
 73.17     803.68
 73.27     788.00
 73.37     667.00
 73.47     693.00
 73.57     639.00
 73.67     598.30
 73.77     639.00
 73.87     639.00
 73.97     540.00
 74.07     570.00
 74.17     586.29
 74.27     557.00
 74.37     624.83
 74.47     565.09
 74.57     577.93
 74.67     588.00
 74.77     609.00
 74.87     528.51
 74.97     616.07
 75.07     609.66
 75.17     618.00
 75.27     597.96
 75.37     581.00
 75.47     633.00
 75.57     596.00
 75.67     608.00
 75.77     578.00
 75.87     528.47
 75.97     541.00
 76.07     623.00
 76.17     600.00
 76.27     658.82
 76.37     623.00
 76.47     683.00
 76.57     655.00
 76.67     728.00
 76.77     729.87
 76.87     710.00
 76.97     721.22
 77.07     648.09
 77.17     649.76
 77.27     609.88
 77.37     572.78
 77.47     558.00
 77.57     589.00
 77.67     529.00
 77.77     520.00
 77.87     541.00
 77.97     560.84
 78.07     530.53
 78.17     447.00
 78.27     519.00
 78.37     530.19
 78.47     501.00
 78.57     518.00
 78.67     499.00
 78.77     527.52
 78.87     506.24
 78.97     525.00
 79.07     475.00
 79.17     528.00
 79.27     479.55
 79.37     503.00
 79.47     493.39
 79.57     490.78
 79.67     541.00
 79.77     509.00
 79.87     505.00
 79.97     526.00
 80.07     550.00
 80.17     547.00
 80.27     566.23
 80.37     499.00
 80.47     522.00
 80.57     565.54
 80.67     585.00
 80.77     567.46
 80.87     593.00
 80.97     632.00
 81.07     656.45
 81.17     642.33
 81.27     681.00
 81.37     735.62
 81.47     788.00
 81.57     778.75
 81.67     746.00
 81.77     745.71
 81.87     741.00
 81.97     672.00
 82.07     710.00
 82.17     691.00
 82.27     676.00
 82.37     638.00
 82.47     618.00
 82.57     583.00
 82.67     579.00
 82.77     544.00
 82.87     565.19
 82.97     588.36
 83.07     524.00
 83.17     578.79
 83.27     509.00
 83.37     560.70
 83.47     543.00
 83.57     579.00
 83.67     580.25
 83.77     583.00
 83.87     509.00
 83.97     548.00
 84.07     500.00
 84.17     564.00
 84.27     553.00
 84.37     503.00
 84.47     581.24
 84.57     571.00
 84.67     496.01
 84.77     542.00
 84.87     526.00
 84.97     561.37
 85.07     511.00
 85.17     472.00
 85.27     490.88
 85.37     484.39
 85.47     566.00
 85.57     511.00
 85.67     526.00
 85.77     453.00
 85.87     562.00
 85.97     504.00
 86.07     534.00
 86.17     544.00
 86.27     498.00
 86.37     548.00
 86.47     524.00
 86.57     552.00
 86.67     528.00
 86.77     524.00
 86.87     528.00
 86.97     527.00
 87.07     546.00
 87.17     542.26
 87.27     577.00
 87.37     591.00
 87.47     601.00
 87.57     613.67
 87.67     615.00
 87.77     654.00
 87.87     627.00
 87.97     584.86
 88.07     543.89
 88.17     560.00
 88.27     565.00
 88.37     559.00
 88.47     572.22
 88.57     575.00
 88.67     556.00
 88.77     527.00
 88.87     551.00
 88.97     583.34
 89.07     582.00
 89.17     595.00
 89.27     557.00
 89.37     610.00
 89.47     616.27
 89.57     581.00
 89.67     559.94
 89.77     579.00
 89.87     602.00
 89.97     530.00
 90.07     564.00
 90.17     575.00
 90.27     541.00
 90.37     545.67
 90.47     545.00
 90.57     511.48
 90.67     511.00
 90.77     497.54
 90.87     516.00
 90.97     549.00
 91.07     508.00
 91.17     463.03
 91.27     510.00
 91.37     526.46
 91.47     486.85
 91.57     491.00
 91.67     543.00
 91.77     488.00
 91.87     519.00
 91.97     506.00
 92.07     520.00
 92.17     493.23
 92.27     464.00
 92.37     586.98
 92.47     555.00
 92.57     615.06
 92.67     571.00
 92.77     593.00
 92.87     645.00
 92.97     586.23
 93.07     620.00
 93.17     653.00
 93.27     672.00
 93.37     703.00
 93.47     708.00
 93.57     716.63
 93.67     782.00
 93.77     735.00
 93.87     775.00
 93.97     816.00
 94.07     735.14
 94.17     826.00
 94.27     776.92
 94.37     826.73
 94.47     835.00
 94.57     808.00
 94.67     836.12
 94.77     892.00
 94.87     877.00
 94.97     896.75
 95.07     916.00
 95.17     909.97
 95.27     868.21
 95.37     881.12
 95.47     897.00
 95.57     838.08
 95.67     773.26
 95.77     821.00
 95.87     733.00
 95.97     708.08
 96.07     744.11
 96.17     705.85
 96.27     687.00
 96.37     690.00
 96.47     671.00
 96.57     719.55
 96.67     785.00
 96.77     801.37
 96.87     874.00
 96.97     904.00
 97.07    1009.00
 97.17    1075.25
 97.27    1174.76
 97.37    1187.00
 97.47    1251.00
 97.57    1294.64
 97.67    1354.84
 97.77    1454.20
 97.87    1438.00
 97.97    1457.30
 98.07    1319.00
 98.17    1406.89
 98.27    1357.00
 98.37    1291.00
 98.47    1122.25
 98.57    1069.91
 98.67    1059.32
 98.77    1025.00
 98.87     963.00
 98.97     909.72
 99.07     887.85
 99.17     854.00
 99.27     895.00
 99.37     884.00
 99.47     880.00
 99.57     930.00
 99.67    1016.00
 99.77    1047.00
 99.87    1106.00
 99.97    1151.66
100.07    1214.05
100.17    1381.00
100.27    1408.00
100.37    1603.92
100.47    1690.44
100.57    1749.00
100.67    1763.00
100.77    1865.00
100.87    1907.00
100.97    1910.33
101.07    1979.70
101.17    1950.00
101.27    1993.00
101.37    1947.00
101.47    1878.00
101.57    1889.00
101.67    1705.00
101.77    1633.00
101.87    1536.00
101.97    1444.42
102.07    1427.25
102.17    1377.00
102.27    1259.59
102.37    1274.00
102.47    1257.00
102.57    1206.00
102.67    1223.66
102.77    1185.00
102.87    1165.51
102.97    1129.98
103.07    1136.00
103.17    1098.32
103.27    1072.42
103.37     965.03
103.47     918.00
103.57     908.49
103.67     887.00
103.77     850.00
103.87     819.15
103.97     788.00
104.07     741.28
104.17     645.64
104.27     690.29
104.37     595.00
104.47     612.00
104.57     592.32
104.67     651.00
104.77     544.00
104.87     591.00
104.97     534.00
105.07     535.00
105.17     547.00
105.27     533.31
105.37     546.00
105.47     559.98
105.57     542.00
105.67     520.00
105.77     500.23
105.87     513.00
105.97     554.00
106.07     506.52
106.17     552.52
106.27     528.00
106.37     540.00
106.47     543.00
106.57     577.00
106.67     609.85
106.77     578.15
106.87     584.00
106.97     607.00
107.07     579.00
107.17     603.00
107.27     640.51
107.37     624.00
107.47     622.26
107.57     654.00
107.67     640.46
107.77     687.06
107.87     680.00
107.97     674.00
108.07     683.00
108.17     654.39
108.27     649.00
108.37     726.00
108.47     685.68
108.57     656.52
108.67     662.00
108.77     688.15
108.87     627.00
108.97     681.00
109.07     680.00
109.17     710.00
109.27     652.37
109.37     669.00
109.47     678.00
109.57     660.00
109.67     694.98
109.77     638.00
109.87     633.01
109.97     598.03
110.07     632.60
110.17     634.00
110.27     566.54
110.37     610.00
110.47     603.00
110.57     559.45
110.67     566.00
110.77     570.00
110.87     549.00
110.97     536.55
111.07     523.72
111.17     583.00
111.27     587.02
111.37     552.00
111.47     534.00
111.57     505.94
111.67     549.00
111.77     536.00
111.87     573.00
111.97     500.54
112.07     554.99
112.17     525.00
112.27     518.00
112.37     523.54
112.47     590.13
112.57     552.94
112.67     559.00
112.77     556.00
112.87     575.00
112.97     584.00
113.07     572.00
113.17     547.00
113.27     633.32
113.37     584.00
113.47     594.46
113.57     611.06
113.67     610.00
113.77     640.90
113.87     663.90
113.97     654.00
114.07     673.79
114.17     761.00
114.27     759.00
114.37     796.00
114.47     861.00
114.57     880.96
114.67    1012.00
114.77    1076.00
114.87    1205.00
114.97    1415.00
115.07    1579.00
115.17    1723.57
115.27    1921.00
115.37    2092.27
115.47    2204.51
115.57    2656.00
115.67    2915.00
115.77    3177.00
115.87    3524.00
115.97    3934.00
116.07    4178.00
116.17    4555.00
116.27    5113.39
116.37    5360.00
116.47    5682.00
116.57    5838.98
116.67    6326.00
116.77    6387.43
116.87    6840.01
116.97    6896.00
117.07    6875.00
117.17    6866.00
117.27    6805.00
117.37    6829.00
117.47    6320.00
117.57    6174.00
117.67    5930.00
117.77    5742.44
117.87    5321.25
117.97    4784.00
118.07    4687.72
118.17    4187.00
118.27    3920.00
118.37    3446.00
118.47    3094.12
118.57    2792.39
118.67    2568.79
118.77    2287.84
118.87    2143.62
118.97    1831.33
119.07    1600.00
119.17    1533.00
119.27    1352.00
119.37    1214.00
119.47    1177.30
119.57    1028.00
119.67    1025.00
119.77     871.00
119.87     876.00
119.97     815.00
120.07     738.00
120.17     705.00
120.27     694.00
120.37     722.00
120.47     638.00
120.57     629.46
120.67     606.00
120.77     603.00
120.87     642.65
120.97     556.16
121.07     587.19
121.17     547.00
121.27     597.00
121.37     555.16
121.47     584.00
121.57     583.00
121.67     560.86
121.77     573.00
121.87     589.00
121.97     634.00
122.07     600.00
122.17     594.54
122.27     619.00
122.37     583.19
122.47     558.08
122.57     572.00
122.67     619.00
122.77     612.36
122.87     619.00
122.97     626.00
123.07     628.00
123.17     619.00
123.27     625.00
123.37     681.00
123.47     601.00
123.57     605.01
123.67     630.37
123.77     667.00
123.87     632.00
123.97     615.00
124.07     652.00
124.17     603.00
124.27     647.71
124.37     575.37
124.47     635.19
124.57     579.92
124.67     572.13
124.77     579.00
124.87     588.53
124.97     604.00
