  9.97     616.24
 10.07     603.00
 10.17     563.95
 10.27     587.00
 10.37     576.00
 10.47     614.92
 10.57     590.00
 10.67     609.00
 10.77     585.00
 10.87     571.00
 10.97     587.00
 11.07     614.14
 11.17     569.04
 11.27     569.00
 11.37     600.00
 11.47     579.00
 11.57     572.64
 11.67     563.67
 11.77     559.30
 11.87     664.00
 11.97     691.00
 12.07     702.00
 12.17     673.48
 12.27     669.57
 12.37     631.16
 12.47     598.97
 12.57     548.00
 12.67     635.00
 12.77     558.00
 12.87     626.00
 12.97     576.00
 13.07     561.00
 13.17     578.34
 13.27     596.04
 13.37     540.00
 13.47     561.00
 13.57     573.41
 13.67     587.70
 13.77     575.00
 13.87     577.00
 13.97     606.21
 14.07     558.94
 14.17     616.56
 14.27     577.00
 14.37     547.00
 14.47     550.00
 14.57     551.00
 14.67     583.00
 14.77     601.65
 14.87     550.00
 14.97     543.00
 15.07     553.80
 15.17     571.00
 15.27     559.00
 15.37     539.37
 15.47     544.00
 15.57     545.00
 15.67     547.00
 15.77     584.48
 15.87     596.00
 15.97     563.00
 16.07     559.00
 16.17     555.00
 16.27     602.59
 16.37     598.00
 16.47     609.70
 16.57     550.00
 16.67     530.00
 16.77     564.00
 16.87     576.00
 16.97     549.00
 17.07     560.00
 17.17     588.00
 17.27     534.92
 17.37     559.00
 17.47     547.93
 17.57     610.67
 17.67     530.93
 17.77     528.00
 17.87     597.99
 17.97     553.80
 18.07     528.00
 18.17     543.90
 18.27     535.00
 18.37     533.00
 18.47     536.07
 18.57     603.00
 18.67     576.00
 18.77     549.26
 18.87     554.00
 18.97     554.00
 19.07     541.00
 19.17     579.00
 19.27     552.00
 19.37     570.00
 19.47     574.00
 19.57     590.00
 19.67     549.00
 19.77     595.00
 19.87     583.55
 19.97     536.00
 20.07     515.00
 20.17     564.08
 20.27     542.69
 20.37     560.00
 20.47     588.00
 20.57     529.00
 20.67     528.00
 20.77     536.00
 20.87     553.00
 20.97     519.00
 21.07     561.00
 21.17     576.38
 21.27     509.00
 21.37     493.00
 21.47     551.00
 21.57     547.64
 21.67     575.20
 21.77     574.31
 21.87     528.00
 21.97     507.00
 22.07     537.00
 22.17     506.00
 22.27     544.00
 22.37     584.03
 22.47     578.00
 22.57     570.00
 22.67     570.37
 22.77     576.28
 22.87     532.00
 22.97     567.00
 23.07     568.00
 23.17     533.00
 23.27     588.86
 23.37     553.00
 23.47     542.68
 23.57     518.85
 23.67     572.32
 23.77     507.61
 23.87     559.00
 23.97     566.00
 24.07     601.00
 24.17     585.65
 24.27     591.00
 24.37     528.12
 24.47     556.00
 24.57     550.83
 24.67     661.50
 24.77     594.00
 24.87     629.99
 24.97     615.40
 25.07     577.00
 25.17     583.00
 25.27     517.48
 25.37     527.00
 25.47     563.88
 25.57     501.71
 25.67     560.00
 25.77     581.66
 25.87     551.00
 25.97     568.00
 26.07     604.00
 26.17     542.00
 26.27     581.00
 26.37     585.00
 26.47     564.00
 26.57     552.41
 26.67     503.52
 26.77     549.00
 26.87     521.29
 26.97     525.00
 27.07     559.00
 27.17     550.00
 27.27     563.22
 27.37     524.22
 27.47     580.00
 27.57     528.00
 27.67     527.43
 27.77     598.00
 27.87     579.00
 27.97     657.51
 28.07     767.00
 28.17     917.00
 28.27     905.00
 28.37     917.00
 28.47     747.94
 28.57     763.00
 28.67     715.00
 28.77     746.00
 28.87     781.69
 28.97     870.00
 29.07     796.00
 29.17     733.00
 29.27     622.00
 29.37     649.00
 29.47     633.39
 29.57     558.00
 29.67     627.00
 29.77     565.00
 29.87     560.00
 29.97     568.00
 30.07     573.47
 30.17     553.00
 30.27     566.00
 30.37     560.82
 30.47     573.74
 30.57     582.02
 30.67     539.67
 30.77     617.94
 30.87     578.00
 30.97     616.00
 31.07     600.00
 31.17     515.00
 31.27     540.00
 31.37     515.83
 31.47     494.42
 31.57     525.00
 31.67     562.00
 31.77     523.00
 31.87     510.00
 31.97     555.00
 32.07     568.00
 32.17     575.00
 32.27     521.96
 32.37     553.00
 32.47     543.12
 32.57     523.54
 32.67     568.50
 32.77     509.00
 32.87     504.51
 32.97     570.00
 33.07     534.00
 33.17     545.55
 33.27     519.37
 33.37     555.72
 33.47     558.93
 33.57     587.00
 33.67     657.29
 33.77     695.23
 33.87     878.06
 33.97     970.77
 34.07    1108.00
 34.17    1013.00
 34.27     874.22
 34.37     721.00
 34.47     622.00
 34.57     566.00
 34.67     538.00
 34.77     488.00
 34.87     543.00
 34.97     552.00
 35.07     515.00
 35.17     540.00
 35.27     539.00
 35.37     516.00
 35.47     530.00
 35.57     541.00
 35.67     552.60
 35.77     525.51
 35.87     556.15
 35.97     536.00
 36.07     493.23
 36.17     492.64
 36.27     493.31
 36.37     516.00
 36.47     564.00
 36.57     517.00
 36.67     474.61
 36.77     512.00
 36.87     523.00
 36.97     499.00
 37.07     515.00
 37.17     501.00
 37.27     484.47
 37.37     525.57
 37.47     484.69
 37.57     487.30
 37.67     529.00
 37.77     531.00
 37.87     568.00
 37.97     485.00
 38.07     533.13
 38.17     558.00
 38.27     514.00
 38.37     505.01
 38.47     534.69
 38.57     528.00
 38.67     522.00
 38.77     472.00
 38.87     554.71
 38.97     489.00
 39.07     494.74
 39.17     499.00
 39.27     463.00
 39.37     531.00
 39.47     535.13
 39.57     503.00
 39.67     479.22
 39.77     497.00
 39.87     518.00
 39.97     489.00
 40.07     492.00
 40.17     481.00
 40.27     460.00
 40.37     487.00
 40.47     471.00
 40.57     498.00
 40.67     504.05
 40.77     493.00
 40.87     487.00
 40.97     510.09
 41.07     480.57
 41.17     486.00
 41.27     528.95
 41.37     506.27
 41.47     478.00
 41.57     516.00
 41.67     520.00
 41.77     522.00
 41.87     482.00
 41.97     519.00
 42.07     513.00
 42.17     490.18
 42.27     501.96
 42.37     522.78
 42.47     536.00
 42.57     576.75
 42.67     623.38
 42.77     620.00
 42.87     585.00
 42.97     563.00
 43.07     514.00
 43.17     488.00
 43.27     502.26
 43.37     523.00
 43.47     467.88
 43.57     470.00
 43.67     547.20
 43.77     551.00
 43.87     507.00
 43.97     516.15
 44.07     522.00
 44.17     508.16
 44.27     499.00
 44.37     519.00
 44.47     529.52
 44.57     535.39
 44.67     473.00
 44.77     506.92
 44.87     504.00
 44.97     515.00
 45.07     550.00
 45.17     532.93
 45.27     473.00
 45.37     468.00
 45.47     518.00
 45.57     554.00
 45.67     505.00
 45.77     482.00
 45.87     477.00
 45.97     498.71
 46.07     504.00
 46.17     490.00
 46.27     495.00
 46.37     503.67
 46.47     503.54
 46.57     465.44
 46.67     538.00
 46.77     490.00
 46.87     510.71
 46.97     499.00
 47.07     481.47
 47.17     516.70
 47.27     523.52
 47.37     560.66
 47.47     533.00
 47.57     534.00
 47.67     548.40
 47.77     628.75
 47.87     627.12
 47.97     567.00
 48.07     603.15
 48.17     581.00
 48.27     564.00
 48.37     534.39
 48.47     551.98
 48.57     554.00
 48.67     528.00
 48.77     519.38
 48.87     515.41
 48.97     599.75
 49.07     533.00
 49.17     584.76
 49.27     615.00
 49.37     666.54
 49.47     668.14
 49.57     820.00
 49.67     937.10
 49.77    1072.00
 49.87    1502.00
 49.97    1804.73
 50.07    2223.00
 50.17    2453.99
 50.27    2522.00
 50.37    2286.00
 50.47    1835.00
 50.57    1429.66
 50.67    1015.00
 50.77     842.09
 50.87     696.00
 50.97     744.00
 51.07     632.00
 51.17     639.00
 51.27     611.91
 51.37     551.00
 51.47     564.00
 51.57     590.00
 51.67     561.23
 51.77     545.00
 51.87     557.00
 51.97     537.00
 52.07     547.34
 52.17     585.00
 52.27     517.05
 52.37     493.32
 52.47     551.00
 52.57     533.57
 52.67     602.00
 52.77     602.00
 52.87     653.97
 52.97     716.00
 53.07     786.00
 53.17     924.87
 53.27    1023.00
 53.37    1213.00
 53.47    1154.00
 53.57    1250.11
 53.67    1112.51
 53.77     979.88
 53.87     853.00
 53.97     802.44
 54.07     712.48
 54.17     558.00
 54.27     540.18
 54.37     523.89
 54.47     548.00
 54.57     505.09
 54.67     563.00
 54.77     545.00
 54.87     545.74
 54.97     512.00
 55.07     519.00
 55.17     542.00
 55.27     562.00
 55.37     567.00
 55.47     554.00
 55.57     541.00
 55.67     553.00
 55.77     614.00
 55.87     594.00
 55.97     607.00
 56.07     630.25
 56.17     759.00
 56.27     915.16
 56.37    1098.58
 56.47    1417.86
 56.57    1715.00
 56.67    2088.00
 56.77    2410.00
 56.87    2611.00
 56.97    2624.34
 57.07    2374.00
 57.17    2080.00
 57.27    1650.00
 57.37    1279.00
 57.47    1101.00
 57.57     835.00
 57.67     759.00
 57.77     704.00
 57.87     708.00
 57.97     641.80
 58.07     689.49
 58.17     746.73
 58.27     827.20
 58.37     900.46
 58.47     975.00
 58.57    1071.00
 58.67    1194.00
 58.77    1401.00
 58.87    1589.00
 58.97    1650.00
 59.07    1607.00
 59.17    1602.00
 59.27    1466.00
 59.37    1321.23
 59.47    1298.00
 59.57    1160.00
 59.67    1103.00
 59.77    1197.29
 59.87    1242.45
 59.97    1280.00
 60.07    1513.00
 60.17    1566.00
 60.27    1667.00
 60.37    1529.61
 60.47    1435.00
 60.57    1282.00
 60.67    1085.00
 60.77     893.05
 60.87     779.00
 60.97     682.00
 61.07     634.11
 61.17     620.00
 61.27     646.00
 61.37     657.22
 61.47     718.00
 61.57     781.45
 61.67     807.00
 61.77     980.41
 61.87    1115.00
 61.97    1244.55
 62.07    1376.28
 62.17    1364.00
 62.27    1369.41
 62.37    1273.00
 62.47    1195.00
 62.57    1097.93
 62.67     912.34
 62.77     791.00
 62.87     707.00
 62.97     599.26
 63.07     633.28
 63.17     564.81
 63.27     604.17
 63.37     547.00
 63.47     601.38
 63.57     560.35
 63.67     618.24
 63.77     583.00
 63.87     579.01
 63.97     608.11
 64.07     688.91
 64.17     795.00
 64.27     830.00
 64.37     922.00
 64.47     960.00
 64.57    1004.00
 64.67    1018.00
 64.77    1022.00
 64.87     985.00
 64.97     963.00
 65.07     910.00
 65.17     803.00
 65.27     719.00
 65.37     677.00
 65.47     614.64
 65.57     669.48
 65.67     591.00
 65.77     561.00
 65.87     559.00
 65.97     558.00
 66.07     586.00
 66.17     533.00
 66.27     486.00
 66.37     575.00
 66.47     539.46
 66.57     588.00
 66.67     566.21
 66.77     556.00
 66.87     550.00
 66.97     575.00
 67.07     625.66
 67.17     698.00
 67.27     798.83
 67.37     894.00
 67.47     998.00
 67.57    1244.00
 67.67    1488.00
 67.77    1789.00
 67.87    2164.00
 67.97    2282.00
 68.07    2383.00
 68.17    2438.00
 68.27    2273.00
 68.37    2140.72
 68.47    1844.00
 68.57    1587.00
 68.67    1277.00
 68.77    1105.04
 68.87     859.00
 68.97     742.00
 69.07     707.00
 69.17     682.00
 69.27     613.83
 69.37     608.00
 69.47     621.52
 69.57     591.14
 69.67     548.00
 69.77     570.00
 69.87     586.00
 69.97     532.43
 70.07     605.00
 70.17     584.87
 70.27     583.82
 70.37     603.67
 70.47     556.00
 70.57     599.00
 70.67     546.41
 70.77     567.00
 70.87     612.00
 70.97     654.59
 71.07     652.92
 71.17     659.00
 71.27     787.00
 71.37     896.00
 71.47     997.00
 71.57    1224.91
 71.67    1374.00
 71.77    1606.00
 71.87    1879.00
 71.97    1890.68
 72.07    1936.00
 72.17    1979.45
 72.27    1812.60
 72.37    1613.00
 72.47    1526.00
 72.57    1364.91
 72.67    1162.00
 72.77    1098.00
 72.87     994.58
 72.97     881.00
 73.07     817.00
 73.17     843.77
 73.27     724.00
 73.37     685.00
 73.47     731.75
 73.57     695.11
 73.67     666.33
 73.77     633.47
 73.87     632.42
 73.97     581.00
 74.07     577.00
 74.17     589.00
 74.27     548.93
 74.37     609.96
 74.47     627.00
 74.57     531.00
 74.67     647.00
 74.77     628.00
 74.87     545.95
 74.97     544.30
 75.07     598.00
 75.17     523.23
 75.27     541.00
 75.37     549.66
 75.47     529.00
 75.57     563.00
 75.67     562.41
 75.77     556.00
 75.87     578.34
 75.97     639.91
 76.07     579.23
 76.17     652.42
 76.27     601.00
 76.37     663.00
 76.47     659.00
 76.57     682.00
 76.67     686.00
 76.77     742.08
 76.87     672.82
 76.97     645.00
 77.07     619.85
 77.17     624.09
 77.27     588.00
 77.37     569.89
 77.47     558.12
 77.57     505.45
 77.67     517.00
 77.77     540.00
 77.87     512.00
 77.97     573.84
 78.07     513.00
 78.17     551.48
 78.27     575.00
 78.37     511.00
 78.47     560.00
 78.57     525.00
 78.67     524.00
 78.77     515.00
 78.87     515.08
 78.97     561.00
 79.07     557.00
 79.17     546.00
 79.27     521.00
 79.37     506.57
 79.47     537.00
 79.57     519.00
 79.67     496.78
 79.77     532.00
 79.87     542.58
 79.97     524.97
 80.07     540.00
 80.17     559.00
 80.27     553.71
 80.37     538.54
 80.47     604.28
 80.57     572.07
 80.67     671.00
 80.77     671.00
 80.87     633.19
 80.97     670.14
 81.07     723.85
 81.17     775.44
 81.27     737.00
 81.37     751.00
 81.47     763.83
 81.57     732.00
 81.67     751.33
 81.77     729.52
 81.87     722.07
 81.97     711.00
 82.07     715.00
 82.17     649.38
 82.27     649.00
 82.37     581.07
 82.47     591.00
 82.57     580.00
 82.67     603.08
 82.77     612.00
 82.87     533.22
 82.97     538.00
 83.07     544.00
 83.17     503.00
 83.27     526.23
 83.37     575.00
 83.47     544.00
 83.57     568.00
 83.67     573.00
 83.77     525.00
 83.87     607.82
 83.97     557.00
 84.07     565.00
 84.17     550.00
 84.27     549.32
 84.37     556.00
 84.47     496.00
 84.57     559.00
 84.67     525.00
 84.77     531.00
 84.87     506.00
 84.97     516.00
 85.07     500.00
 85.17     530.00
 85.27     534.00
 85.37     536.20
 85.47     568.59
 85.57     530.00
 85.67     521.00
 85.77     560.06
 85.87     550.32
 85.97     515.00
 86.07     531.00
 86.17     504.00
 86.27     539.87
 86.37     512.00
 86.47     549.00
 86.57     509.46
 86.67     583.00
 86.77     604.00
 86.87     599.40
 86.97     614.00
 87.07     603.00
 87.17     660.00
 87.27     672.00
 87.37     634.00
 87.47     680.00
 87.57     694.00
 87.67     630.92
 87.77     650.00
 87.87     617.00
 87.97     631.17
 88.07     609.00
 88.17     617.00
 88.27     546.96
 88.37     597.82
 88.47     525.22
 88.57     571.00
 88.67     531.37
 88.77     590.00
 88.87     605.00
 88.97     598.00
 89.07     618.00
 89.17     622.00
 89.27     635.00
 89.37     559.49
 89.47     634.00
 89.57     584.00
 89.67     588.00
 89.77     580.00
 89.87     577.62
 89.97     548.65
 90.07     563.47
 90.17     505.00
 90.27     586.29
 90.37     508.12
 90.47     559.15
 90.57     523.00
 90.67     507.01
 90.77     506.98
 90.87     504.25
 90.97     532.00
 91.07     550.55
 91.17     516.00
 91.27     494.00
 91.37     511.00
 91.47     497.00
 91.57     512.00
 91.67     531.65
 91.77     539.00
 91.87     555.00
 91.97     563.00
 92.07     595.60
 92.17     558.00
 92.27     599.00
 92.37     576.78
 92.47     582.00
 92.57     645.00
 92.67     658.20
 92.77     689.97
 92.87     748.82
 92.97     774.93
 93.07     734.02
 93.17     760.00
 93.27     786.00
 93.37     781.00
 93.47     817.35
 93.57     819.00
 93.67     883.00
 93.77     812.00
 93.87     853.92
 93.97     811.69
 94.07     813.80
 94.17     829.02
 94.27     908.00
 94.37     883.00
 94.47     874.00
 94.57     888.00
 94.67     938.67
 94.77     901.00
 94.87     865.57
 94.97     857.00
 95.07     928.00
 95.17     892.00
 95.27     796.04
 95.37     758.69
 95.47     713.74
 95.57     730.00
 95.67     736.00
 95.77     664.82
 95.87     739.00
 95.97     701.00
 96.07     702.00
 96.17     745.00
 96.27     762.22
 96.37     723.00
 96.47     754.00
 96.57     843.00
 96.67     897.00
 96.77     936.66
 96.87    1069.00
 96.97    1070.00
 97.07    1235.00
 97.17    1263.94
 97.27    1362.29
 97.37    1447.00
 97.47    1456.00
 97.57    1390.00
 97.67    1468.85
 97.77    1457.00
 97.87    1310.00
 97.97    1272.00
 98.07    1250.00
 98.17    1109.82
 98.27    1094.00
 98.37     980.58
 98.47     962.12
 98.57     874.00
 98.67     864.41
 98.77     814.00
 98.87     763.00
 98.97     809.00
 99.07     777.00
 99.17     797.00
 99.27     817.87
 99.37     921.00
 99.47    1005.00
 99.57    1105.00
 99.67    1103.88
 99.77    1259.00
 99.87    1390.71
 99.97    1527.00
100.07    1626.00
100.17    1758.61
100.27    1865.00
100.37    1935.00
100.47    2054.07
100.57    2078.72
100.67    2118.00
100.77    2075.02
100.87    2117.00
100.97    2064.83
101.07    2083.00
101.17    1916.00
101.27    1885.00
101.37    1743.00
101.47    1606.00
101.57    1463.00
101.67    1423.00
101.77    1372.00
101.87    1341.07
101.97    1297.00
102.07    1183.00
102.17    1147.00
102.27    1186.96
102.37    1083.00
102.47    1143.83
102.57    1087.00
102.67    1084.00
102.77    1080.27
102.87    1058.40
102.97     911.21
103.07     937.14
103.17     892.00
103.27     808.00
103.37     749.22
103.47     729.00
103.57     733.00
103.67     704.00
103.77     683.00
103.87     670.92
103.97     656.53
104.07     597.00
104.17     609.00
104.27     588.00
104.37     581.04
104.47     506.25
104.57     541.00
104.67     583.91
104.77     559.00
104.87     532.31
104.97     542.00
105.07     577.00
105.17     523.00
105.27     494.00
105.37     523.00
105.47     496.97
105.57     560.00
105.67     515.00
105.77     545.00
105.87     577.09
105.97     587.90
106.07     587.00
106.17     549.00
106.27     602.00
106.37     591.00
106.47     619.00
106.57     592.95
106.67     608.54
106.77     649.00
106.87     601.00
106.97     687.00
107.07     677.00
107.17     714.00
107.27     685.00
107.37     667.00
107.47     705.30
107.57     665.00
107.67     701.00
107.77     641.00
107.87     722.00
107.97     673.00
108.07     704.10
108.17     714.21
108.27     711.03
108.37     667.00
108.47     671.00
108.57     636.00
108.67     679.12
108.77     708.00
108.87     672.93
108.97     673.00
109.07     699.00
109.17     655.00
109.27     621.51
109.37     671.00
109.47     648.00
109.57     627.00
109.67     622.00
109.77     596.72
109.87     635.46
109.97     608.00
110.07     556.00
110.17     581.00
110.27     586.00
110.37     583.00
110.47     562.00
110.57     506.00
110.67     534.00
110.77     542.00
110.87     529.00
110.97     516.89
111.07     508.41
111.17     552.00
111.27     569.29
111.37     536.00
111.47     536.69
111.57     531.87
111.67     536.12
111.77     583.00
111.87     558.00
111.97     560.00
112.07     565.00
112.17     609.08
112.27     564.00
112.37     572.00
112.47     556.45
112.57     604.16
112.67     616.00
112.77     673.36
112.87     623.99
112.97     641.58
113.07     642.36
113.17     690.26
113.27     751.95
113.37     764.95
113.47     750.49
113.57     779.37
113.67     869.00
113.77     931.00
113.87     962.00
113.97    1028.00
114.07    1047.00
114.17    1146.00
114.27    1252.12
114.37    1275.00
114.47    1324.00
114.57    1451.00
114.67    1588.00
114.77    1742.00
114.87    1910.00
114.97    2126.11
115.07    2325.00
115.17    2570.00
115.27    2790.00
115.37    3053.82
115.47    3439.00
115.57    3783.00
115.67    4226.00
115.77    4543.25
115.87    4812.00
115.97    5140.00
116.07    5453.00
116.17    5952.00
116.27    6242.88
116.37    6714.39
116.47    6668.00
116.57    6941.00
116.67    6934.00
116.77    6900.05
116.87    6922.00
116.97    6874.00
117.07    6377.00
117.17    6159.00
117.27    5678.69
117.37    5295.00
117.47    5007.00
117.57    4592.14
117.67    4196.00
117.77    3998.00
117.87    3612.25
117.97    3283.00
118.07    2928.00
118.17    2590.00
118.27    2311.00
118.37    2007.00
118.47    1727.98
118.57    1637.97
118.67    1393.00
118.77    1261.00
118.87    1136.89
118.97    1001.00
119.07     869.00
119.17     867.00
119.27     766.00
119.37     776.00
119.47     741.57
119.57     697.00
119.67     700.35
119.77     643.00
119.87     643.00
119.97     649.15
120.07     606.83
120.17     638.91
120.27     584.75
120.37     561.11
120.47     542.69
120.57     570.00
120.67     599.60
120.77     558.00
120.87     561.00
120.97     611.00
121.07     538.37
121.17     566.27
121.27     595.00
121.37     584.61
121.47     610.00
121.57     581.00
121.67     572.00
121.77     578.00
121.87     639.00
121.97     614.00
122.07     560.00
122.17     618.00
122.27     670.00
122.37     554.00
122.47     605.00
122.57     622.00
122.67     645.00
122.77     613.72
122.87     637.00
122.97     678.00
123.07     683.17
123.17     591.79
123.27     670.00
123.37     673.13
123.47     639.80
123.57     618.41
123.67     605.00
123.77     632.99
123.87     632.00
123.97     617.00
124.07     604.02
124.17     615.00
124.27     582.00
124.37     600.00
124.47     601.00
124.57     558.00
124.67     582.89
124.77     546.07
124.87     602.69
124.97     586.00
