  9.97     749.00
 10.07     733.00
 10.17     721.00
 10.27     697.45
 10.37     764.00
 10.47     703.00
 10.57     736.00
 10.67     719.00
 10.77     733.00
 10.87     765.00
 10.97     714.00
 11.07     772.00
 11.17     765.00
 11.27     719.00
 11.37     691.92
 11.47     763.00
 11.57     745.92
 11.67     759.00
 11.77     758.00
 11.87     773.94
 11.97     694.92
 12.07     889.00
 12.17     855.00
 12.27     876.00
 12.37     855.00
 12.47     839.83
 12.57     819.00
 12.67     708.00
 12.77     714.00
 12.87     685.00
 12.97     691.00
 13.07     684.83
 13.17     685.00
 13.27     671.00
 13.37     715.34
 13.47     681.00
 13.57     723.88
 13.67     638.00
 13.77     667.00
 13.87     674.00
 13.97     662.00
 14.07     691.00
 14.17     667.21
 14.27     669.00
 14.37     661.00
 14.47     690.19
 14.57     690.23
 14.67     680.00
 14.77     658.00
 14.87     654.00
 14.97     717.85
 15.07     658.16
 15.17     643.00
 15.27     675.00
 15.37     706.64
 15.47     687.00
 15.57     660.00
 15.67     679.00
 15.77     702.73
 15.87     687.00
 15.97     677.00
 16.07     637.00
 16.17     622.28
 16.27     651.00
 16.37     681.80
 16.47     640.00
 16.57     641.95
 16.67     639.05
 16.77     687.00
 16.87     615.45
 16.97     649.39
 17.07     617.62
 17.17     723.00
 17.27     598.00
 17.37     631.00
 17.47     708.00
 17.57     695.89
 17.67     644.00
 17.77     654.81
 17.87     662.00
 17.97     692.20
 18.07     634.00
 18.17     599.00
 18.27     690.00
 18.37     680.00
 18.47     622.56
 18.57     657.40
 18.67     625.14
 18.77     670.00
 18.87     664.72
 18.97     660.00
 19.07     629.00
 19.17     669.07
 19.27     685.57
 19.37     617.00
 19.47     624.00
 19.57     620.35
 19.67     604.00
 19.77     619.00
 19.87     600.96
 19.97     608.00
 20.07     633.00
 20.17     648.73
 20.27     606.00
 20.37     641.00
 20.47     627.00
 20.57     623.56
 20.67     618.00
 20.77     635.00
 20.87     660.12
 20.97     633.00
 21.07     665.00
 21.17     608.00
 21.27     615.00
 21.37     599.10
 21.47     620.00
 21.57     629.00
 21.67     621.44
 21.77     589.00
 21.87     665.00
 21.97     594.37
 22.07     667.00
 22.17     615.35
 22.27     671.02
 22.37     603.00
 22.47     629.00
 22.57     613.48
 22.67     631.00
 22.77     660.00
 22.87     620.00
 22.97     632.00
 23.07     630.00
 23.17     613.27
 23.27     670.81
 23.37     597.69
 23.47     619.84
 23.57     635.00
 23.67     644.00
 23.77     625.51
 23.87     604.00
 23.97     610.00
 24.07     651.00
 24.17     595.00
 24.27     651.00
 24.37     627.99
 24.47     653.00
 24.57     673.00
 24.67     625.00
 24.77     706.00
 24.87     692.00
 24.97     730.12
 25.07     698.17
 25.17     785.00
 25.27     710.55
 25.37     630.32
 25.47     630.00
 25.57     618.00
 25.67     636.76
 25.77     654.00
 25.87     630.22
 25.97     618.50
 26.07     658.00
 26.17     641.00
 26.27     683.37
 26.37     676.00
 26.47     621.00
 26.57     668.73
 26.67     672.00
 26.77     675.00
 26.87     680.00
 26.97     625.00
 27.07     681.00
 27.17     715.25
 27.27     717.96
 27.37     763.00
 27.47     786.00
 27.57     792.00
 27.67     870.71
 27.77     919.00
 27.87    1039.60
 27.97    1388.26
 28.07    1985.00
 28.17    3299.00
 28.27    5560.55
 28.37    7564.00
 28.47    8747.00
 28.57    8201.00
 28.67    6214.10
 28.77    4429.00
 28.87    3782.00
 28.97    3792.00
 29.07    4555.73
 29.17    4923.61
 29.27    4527.00
 29.37    3498.00
 29.47    2335.00
 29.57    1629.00
 29.67    1322.00
 29.77    1078.00
 29.87     946.37
 29.97     838.00
 30.07     786.91
 30.17     773.00
 30.27     745.00
 30.37     781.00
 30.47     724.13
 30.57     730.40
 30.67     766.00
 30.77     689.72
 30.87     700.00
 30.97     745.71
 31.07     772.00
 31.17     819.00
 31.27     798.00
 31.37     740.00
 31.47     704.00
 31.57     758.00
 31.67     723.00
 31.77     628.37
 31.87     717.00
 31.97     623.06
 32.07     612.38
 32.17     677.00
 32.27     680.00
 32.37     623.00
 32.47     647.00
 32.57     641.00
 32.67     651.00
 32.77     642.00
 32.87     623.00
 32.97     580.02
 33.07     655.56
 33.17     613.21
 33.27     675.00
 33.37     667.00
 33.47     638.58
 33.57     692.00
 33.67     704.00
 33.77     667.19
 33.87     780.00
 33.97     871.00
 34.07     982.04
 34.17    1067.25
 34.27    1235.07
 34.37    1337.33
 34.47    1207.09
 34.57    1121.90
 34.67     906.00
 34.77     855.00
 34.87     714.00
 34.97     650.24
 35.07     710.00
 35.17     704.00
 35.27     655.93
 35.37     646.00
 35.47     648.00
 35.57     589.41
 35.67     602.01
 35.77     625.00
 35.87     588.85
 35.97     598.00
 36.07     619.00
 36.17     610.00
 36.27     563.15
 36.37     600.00
 36.47     600.00
 36.57     562.69
 36.67     587.00
 36.77     642.00
 36.87     632.00
 36.97     595.21
 37.07     613.00
 37.17     614.00
 37.27     622.00
 37.37     659.00
 37.47     589.00
 37.57     672.00
 37.67     608.00
 37.77     610.00
 37.87     675.00
 37.97     693.11
 38.07     740.02
 38.17     738.09
 38.27     790.58
 38.37     766.79
 38.47     811.65
 38.57     744.00
 38.67     671.08
 38.77     657.00
 38.87     631.00
 38.97     631.02
 39.07     597.00
 39.17     621.00
 39.27     586.00
 39.37     579.00
 39.47     618.00
 39.57     654.00
 39.67     611.00
 39.77     577.17
 39.87     641.00
 39.97     613.00
 40.07     610.31
 40.17     585.00
 40.27     623.00
 40.37     610.00
 40.47     613.00
 40.57     591.00
 40.67     593.00
 40.77     570.00
 40.87     594.00
 40.97     612.99
 41.07     574.00
 41.17     603.00
 41.27     638.37
 41.37     598.00
 41.47     605.00
 41.57     595.00
 41.67     646.01
 41.77     618.00
 41.87     618.00
 41.97     633.43
 42.07     600.00
 42.17     636.18
 42.27     622.00
 42.37     601.00
 42.47     627.00
 42.57     614.00
 42.67     655.00
 42.77     638.00
 42.87     703.77
 42.97     637.00
 43.07     681.00
 43.17     670.00
 43.27     710.89
 43.37     668.03
 43.47     633.00
 43.57     627.00
 43.67     640.00
 43.77     603.43
 43.87     582.85
 43.97     563.00
 44.07     601.00
 44.17     637.10
 44.27     598.00
 44.37     622.00
 44.47     630.00
 44.57     637.87
 44.67     612.00
 44.77     609.40
 44.87     597.00
 44.97     616.00
 45.07     650.00
 45.17     646.47
 45.27     631.00
 45.37     633.29
 45.47     565.00
 45.57     637.00
 45.67     654.00
 45.77     612.00
 45.87     612.00
 45.97     590.18
 46.07     589.00
 46.17     613.00
 46.27     626.00
 46.37     569.00
 46.47     593.00
 46.57     646.00
 46.67     641.18
 46.77     586.00
 46.87     639.00
 46.97     626.00
 47.07     601.90
 47.17     623.00
 47.27     597.31
 47.37     591.00
 47.47     591.00
 47.57     611.00
 47.67     611.96
 47.77     651.50
 47.87     657.00
 47.97     649.00
 48.07     718.88
 48.17     691.00
 48.27     723.87
 48.37     681.00
 48.47     688.06
 48.57     693.00
 48.67     667.00
 48.77     658.66
 48.87     627.68
 48.97     609.76
 49.07     636.00
 49.17     641.00
 49.27     603.00
 49.37     659.00
 49.47     672.00
 49.57     665.00
 49.67     679.69
 49.77     735.08
 49.87     854.73
 49.97     948.28
 50.07    1168.00
 50.17    1585.07
 50.27    1975.00
 50.37    2473.01
 50.47    2868.00
 50.57    3220.00
 50.67    3125.53
 50.77    2773.34
 50.87    2483.12
 50.97    1947.00
 51.07    1389.00
 51.17    1135.00
 51.27    1018.56
 51.37     807.45
 51.47     840.86
 51.57     736.51
 51.67     768.00
 51.77     775.00
 51.87     693.24
 51.97     723.00
 52.07     656.70
 52.17     656.71
 52.27     728.00
 52.37     685.00
 52.47     717.00
 52.57     696.00
 52.67     678.00
 52.77     685.00
 52.87     660.00
 52.97     658.83
 53.07     687.00
 53.17     729.40
 53.27     765.15
 53.37     811.00
 53.47     860.87
 53.57     921.90
 53.67    1059.65
 53.77    1090.32
 53.87    1219.00
 53.97    1374.85
 54.07    1281.00
 54.17    1259.10
 54.27    1155.00
 54.37    1011.13
 54.47     923.00
 54.57     890.00
 54.67     773.47
 54.77     780.28
 54.87     742.71
 54.97     713.00
 55.07     641.13
 55.17     636.00
 55.27     681.00
 55.37     719.00
 55.47     699.19
 55.57     642.01
 55.67     726.00
 55.77     734.67
 55.87     649.00
 55.97     689.09
 56.07     708.48
 56.17     674.00
 56.27     790.59
 56.37     753.27
 56.47     887.22
 56.57     890.63
 56.67    1027.88
 56.77    1298.41
 56.87    1427.00
 56.97    1744.00
 57.07    2064.00
 57.17    2453.23
 57.27    2547.00
 57.37    2793.00
 57.47    2633.00
 57.57    2414.00
 57.67    1991.15
 57.77    1802.00
 57.87    1403.64
 57.97    1253.15
 58.07    1045.00
 58.17     985.00
 58.27     895.00
 58.37     800.00
 58.47     785.00
 58.57     823.47
 58.67     856.00
 58.77     874.59
 58.87     954.00
 58.97    1058.00
 59.07    1192.83
 59.17    1197.00
 59.27    1261.16
 59.37    1293.62
 59.47    1362.96
 59.57    1307.00
 59.67    1325.80
 59.77    1385.00
 59.87    1268.00
 59.97    1305.05
 60.07    1250.26
 60.17    1241.66
 60.27    1364.00
 60.37    1446.00
 60.47    1483.00
 60.57    1598.01
 60.67    1657.00
 60.77    1592.34
 60.87    1516.00
 60.97    1474.00
 61.07    1329.55
 61.17    1197.00
 61.27    1068.00
 61.37     979.07
 61.47     857.00
 61.57     787.55
 61.67     825.00
 61.77     836.00
 61.87     836.00
 61.97     921.00
 62.07    1001.00
 62.17    1073.00
 62.27    1257.00
 62.37    1494.20
 62.47    1684.00
 62.57    1749.00
 62.67    1853.56
 62.77    1782.00
 62.87    1745.00
 62.97    1638.20
 63.07    1357.31
 63.17    1280.00
 63.27    1095.64
 63.37     918.00
 63.47     885.00
 63.57     773.00
 63.67     785.60
 63.77     737.83
 63.87     696.00
 63.97     722.00
 64.07     753.00
 64.17     749.00
 64.27     772.00
 64.37     801.00
 64.47     809.00
 64.57     932.00
 64.67    1017.00
 64.77    1080.36
 64.87    1304.00
 64.97    1418.59
 65.07    1503.75
 65.17    1583.00
 65.27    1655.00
 65.37    1611.00
 65.47    1505.00
 65.57    1513.00
 65.67    1332.00
 65.77    1147.00
 65.87    1065.00
 65.97     940.00
 66.07     953.00
 66.17     882.00
 66.27     771.00
 66.37     764.00
 66.47     713.00
 66.57     752.00
 66.67     735.30
 66.77     694.61
 66.87     691.00
 66.97     731.95
 67.07     699.00
 67.17     705.00
 67.27     717.00
 67.37     742.91
 67.47     787.00
 67.57     781.00
 67.67     850.00
 67.77     961.00
 67.87     962.00
 67.97    1075.00
 68.07    1296.00
 68.17    1516.00
 68.27    1822.00
 68.37    2046.00
 68.47    2223.99
 68.57    2412.14
 68.67    2540.00
 68.77    2548.00
 68.87    2350.08
 68.97    2289.00
 69.07    1959.00
 69.17    1755.00
 69.27    1556.00
 69.37    1358.00
 69.47    1139.00
 69.57    1032.21
 69.67     964.58
 69.77     935.00
 69.87     866.00
 69.97     806.00
 70.07     824.00
 70.17     765.00
 70.27     758.76
 70.37     720.00
 70.47     709.00
 70.57     666.62
 70.67     684.00
 70.77     651.01
 70.87     750.00
 70.97     705.00
 71.07     671.26
 71.17     708.37
 71.27     734.00
 71.37     733.44
 71.47     718.62
 71.57     842.87
 71.67     787.50
 71.77     878.00
 71.87    1042.00
 71.97    1091.00
 72.07    1287.00
 72.17    1428.57
 72.27    1609.47
 72.37    1717.00
 72.47    1912.60
 72.57    1922.26
 72.67    2075.05
 72.77    1977.66
 72.87    1894.00
 72.97    1733.59
 73.07    1666.00
 73.17    1465.00
 73.27    1328.00
 73.37    1158.28
 73.47     987.00
 73.57     978.97
 73.67     901.28
 73.77     841.76
 73.87     755.00
 73.97     770.37
 74.07     758.61
 74.17     710.67
 74.27     700.00
 74.37     658.88
 74.47     710.00
 74.57     645.20
 74.67     628.00
 74.77     641.00
 74.87     681.00
 74.97     692.15
 75.07     674.00
 75.17     722.00
 75.27     671.00
 75.37     713.00
 75.47     738.00
 75.57     702.00
 75.67     716.00
 75.77     637.34
 75.87     718.00
 75.97     707.25
 76.07     707.00
 76.17     717.00
 76.27     779.00
 76.37     683.48
 76.47     797.00
 76.57     769.00
 76.67     796.96
 76.77     855.37
 76.87     919.58
 76.97     918.00
 77.07    1013.00
 77.17    1079.00
 77.27    1025.00
 77.37    1088.00
 77.47    1025.01
 77.57     972.47
 77.67     899.00
 77.77     836.00
 77.87     814.93
 77.97     804.00
 78.07     815.40
 78.17     729.35
 78.27     688.27
 78.37     702.00
 78.47     666.00
 78.57     653.00
 78.67     682.00
 78.77     633.00
 78.87     648.62
 78.97     656.00
 79.07     679.96
 79.17     620.00
 79.27     615.00
 79.37     635.00
 79.47     633.00
 79.57     682.69
 79.67     615.50
 79.77     658.18
 79.87     666.00
 79.97     629.00
 80.07     608.00
 80.17     669.28
 80.27     665.45
 80.37     635.00
 80.47     705.00
 80.57     696.00
 80.67     767.00
 80.77     767.00
 80.87     810.02
 80.97     870.74
 81.07     984.00
 81.17    1064.00
 81.27    1147.00
 81.37    1286.00
 81.47    1360.00
 81.57    1368.00
 81.67    1425.46
 81.77    1377.78
 81.87    1563.00
 81.97    1559.00
 82.07    1491.00
 82.17    1424.00
 82.27    1358.00
 82.37    1285.00
 82.47    1177.09
 82.57    1063.73
 82.67    1024.54
 82.77     955.00
 82.87     887.10
 82.97     845.00
 83.07     791.00
 83.17     754.00
 83.27     726.11
 83.37     689.00
 83.47     719.00
 83.57     678.39
 83.67     727.95
 83.77     639.00
 83.87     703.01
 83.97     702.00
 84.07     632.13
 84.17     677.84
 84.27     655.00
 84.37     671.00
 84.47     644.00
 84.57     655.00
 84.67     636.00
 84.77     730.32
 84.87     625.00
 84.97     660.83
 85.07     639.00
 85.17     671.00
 85.27     647.62
 85.37     627.00
 85.47     647.00
 85.57     601.00
 85.67     607.00
 85.77     600.25
 85.87     594.08
 85.97     600.00
 86.07     625.00
 86.17     609.00
 86.27     632.00
 86.37     612.00
 86.47     621.00
 86.57     643.82
 86.67     628.50
 86.77     682.28
 86.87     628.00
 86.97     625.00
 87.07     664.00
 87.17     643.00
 87.27     692.13
 87.37     662.00
 87.47     677.94
 87.57     732.00
 87.67     703.00
 87.77     688.99
 87.87     682.00
 87.97     673.73
 88.07     679.05
 88.17     683.46
 88.27     718.33
 88.37     720.00
 88.47     773.30
 88.57     732.00
 88.67     752.00
 88.77     667.70
 88.87     692.00
 88.97     690.00
 89.07     671.83
 89.17     660.00
 89.27     705.00
 89.37     652.20
 89.47     624.52
 89.57     714.29
 89.67     672.00
 89.77     669.00
 89.87     712.98
 89.97     637.48
 90.07     709.00
 90.17     683.46
 90.27     739.00
 90.37     696.15
 90.47     700.00
 90.57     696.54
 90.67     620.00
 90.77     703.00
 90.87     661.00
 90.97     632.93
 91.07     594.01
 91.17     629.00
 91.27     590.88
 91.37     619.85
 91.47     626.00
 91.57     635.00
 91.67     640.48
 91.77     589.00
 91.87     638.00
 91.97     658.00
 92.07     611.00
 92.17     608.00
 92.27     640.00
 92.37     612.00
 92.47     587.14
 92.57     633.00
 92.67     666.00
 92.77     616.00
 92.87     664.89
 92.97     680.24
 93.07     699.00
 93.17     682.61
 93.27     656.00
 93.37     708.00
 93.47     729.61
 93.57     726.00
 93.67     789.00
 93.77     777.00
 93.87     763.79
 93.97     815.00
 94.07     776.58
 94.17     848.00
 94.27     874.45
 94.37     899.17
 94.47     842.00
 94.57     853.33
 94.67     923.37
 94.77    1029.00
 94.87     951.00
 94.97     988.00
 95.07     981.80
 95.17     984.00
 95.27    1024.00
 95.37    1021.00
 95.47    1042.00
 95.57    1107.00
 95.67    1095.00
 95.77    1131.00
 95.87    1057.00
 95.97    1051.52
 96.07    1024.00
 96.17     993.74
 96.27     958.58
 96.37     891.00
 96.47     937.00
 96.57     861.00
 96.67     926.00
 96.77     870.02
 96.87     820.00
 96.97     823.61
 97.07     892.00
 97.17     926.00
 97.27     925.01
 97.37     930.00
 97.47    1031.00
 97.57    1054.00
 97.67    1080.00
 97.77    1147.00
 97.87    1273.28
 97.97    1323.47
 98.07    1448.00
 98.17    1397.00
 98.27    1521.58
 98.37    1565.00
 98.47    1598.00
 98.57    1630.00
 98.67    1608.77
 98.77    1598.00
 98.87    1533.24
 98.97    1432.00
 99.07    1434.00
 99.17    1350.00
 99.27    1254.00
 99.37    1167.00
 99.47    1139.00
 99.57    1155.90
 99.67    1033.00
 99.77    1033.00
 99.87    1053.00
 99.97     998.00
100.07    1009.96
100.17     968.00
100.27    1044.00
100.37    1164.00
100.47    1157.78
100.57    1266.61
100.67    1388.10
100.77    1394.73
100.87    1537.00
100.97    1576.70
101.07    1690.00
101.17    1708.76
101.27    1931.12
101.37    2025.00
101.47    2047.41
101.57    2064.82
101.67    2051.00
101.77    2122.00
101.87    2174.25
101.97    2192.00
102.07    2128.91
102.17    2039.00
102.27    2011.26
102.37    1938.47
102.47    1896.16
102.57    1821.74
102.67    1702.28
102.77    1688.00
102.87    1654.24
102.97    1516.00
103.07    1496.49
103.17    1439.00
103.27    1430.00
103.37    1437.19
103.47    1358.00
103.57    1342.00
103.67    1317.88
103.77    1179.00
103.87    1190.00
103.97    1128.74
104.07    1123.64
104.17    1090.29
104.27    1024.00
104.37    1021.00
104.47     953.00
104.57     917.67
104.67     898.02
104.77     828.00
104.87     760.83
104.97     813.00
105.07     698.86
105.17     764.00
105.27     718.00
105.37     715.00
105.47     622.48
105.57     696.00
105.67     632.84
105.77     691.00
105.87     663.00
105.97     608.00
106.07     668.00
106.17     648.00
106.27     617.96
106.37     638.00
106.47     620.00
106.57     609.00
106.67     629.00
106.77     643.00
106.87     661.00
106.97     667.17
107.07     675.00
107.17     668.00
107.27     709.49
107.37     680.00
107.47     711.97
107.57     715.85
107.67     698.00
107.77     705.00
107.87     740.47
107.97     714.44
108.07     765.56
108.17     716.00
108.27     792.23
108.37     743.12
108.47     804.92
108.57     723.00
108.67     805.00
108.77     783.00
108.87     770.00
108.97     825.33
109.07     819.00
109.17     773.56
109.27     838.72
109.37     772.00
109.47     766.00
109.57     818.45
109.67     746.93
109.77     739.00
109.87     802.21
109.97     750.00
110.07     762.00
110.17     743.00
110.27     801.75
110.37     719.00
110.47     757.00
110.57     814.82
110.67     774.00
110.77     723.00
110.87     717.00
110.97     729.00
111.07     739.24
111.17     711.00
111.27     664.04
111.37     710.52
111.47     691.58
111.57     636.04
111.67     631.00
111.77     685.00
111.87     666.00
111.97     640.00
112.07     626.00
112.17     615.54
112.27     606.00
112.37     654.00
112.47     637.48
112.57     658.74
112.67     633.59
112.77     605.98
112.87     628.06
112.97     651.77
113.07     660.58
113.17     609.00
113.27     597.57
113.37     603.00
113.47     634.69
113.57     644.00
113.67     602.00
113.77     635.00
113.87     647.00
113.97     699.82
114.07     664.00
114.17     640.00
114.27     677.00
114.37     660.00
114.47     664.98
114.57     752.00
114.67     715.00
114.77     758.09
114.87     790.00
114.97     739.74
115.07     797.00
115.17     897.00
115.27     876.82
115.37     922.00
115.47    1040.00
115.57    1113.00
115.67    1298.00
115.77    1426.00
115.87    1471.44
115.97    1693.00
116.07    1923.00
116.17    2140.00
116.27    2351.00
116.37    2691.00
116.47    2991.00
116.57    3221.00
116.67    3529.00
116.77    3891.00
116.87    4395.00
116.97    4654.97
117.07    5287.28
117.17    5426.00
117.27    5802.47
117.37    6387.00
117.47    6831.00
117.57    6945.00
117.67    7362.00
117.77    7356.55
117.87    7533.00
117.97    7702.00
118.07    7498.00
118.17    7590.00
118.27    7400.00
118.37    7178.00
118.47    6836.23
118.57    6599.00
118.67    6411.62
118.77    5763.00
118.87    5478.00
118.97    5020.00
119.07    4787.58
119.17    4439.18
119.27    4022.53
119.37    3750.00
119.47    3581.00
119.57    3152.03
119.67    2718.52
119.77    2590.05
119.87    2316.00
119.97    2158.00
120.07    1866.38
120.17    1771.00
120.27    1612.00
120.37    1548.00
120.47    1396.00
120.57    1273.00
120.67    1160.00
120.77    1039.00
120.87    1047.00
120.97     991.00
121.07     949.00
121.17     840.39
121.27     876.00
121.37     833.81
121.47     857.00
121.57     703.00
121.67     728.00
121.77     790.00
121.87     717.00
121.97     708.00
122.07     717.00
122.17     678.71
122.27     692.00
122.37     709.32
122.47     747.00
122.57     733.35
122.67     705.14
122.77     717.00
122.87     766.00
122.97     729.00
123.07     673.00
123.17     771.30
123.27     763.00
123.37     656.00
123.47     710.80
123.57     744.00
123.67     690.00
123.77     748.00
123.87     794.00
123.97     817.11
124.07     752.11
124.17     808.00
124.27     795.31
124.37     784.00
124.47     833.00
124.57     836.00
124.67     810.00
124.77     788.29
124.87     832.00
124.97     808.00
