  9.97     659.00
 10.07     601.00
 10.17     564.00
 10.27     527.44
 10.37     607.00
 10.47     572.48
 10.57     540.45
 10.67     548.25
 10.77     622.00
 10.87     600.00
 10.97     615.52
 11.07     559.06
 11.17     576.00
 11.27     537.29
 11.37     594.00
 11.47     608.02
 11.57     587.00
 11.67     573.00
 11.77     636.93
 11.87     589.46
 11.97     712.00
 12.07     670.00
 12.17     688.00
 12.27     697.54
 12.37     639.00
 12.47     652.00
 12.57     582.36
 12.67     578.00
 12.77     554.00
 12.87     584.00
 12.97     576.00
 13.07     621.14
 13.17     539.00
 13.27     581.00
 13.37     575.66
 13.47     562.00
 13.57     556.00
 13.67     554.00
 13.77     552.00
 13.87     553.00
 13.97     619.00
 14.07     559.00
 14.17     614.57
 14.27     565.16
 14.37     582.00
 14.47     518.00
 14.57     544.00
 14.67     553.05
 14.77     602.92
 14.87     601.52
 14.97     541.80
 15.07     517.00
 15.17     543.00
 15.27     584.00
 15.37     545.00
 15.47     545.00
 15.57     568.12
 15.67     529.00
 15.77     596.00
 15.87     533.78
 15.97     573.00
 16.07     544.50
 16.17     548.00
 16.27     572.00
 16.37     577.00
 16.47     539.92
 16.57     586.00
 16.67     601.00
 16.77     551.00
 16.87     536.25
 16.97     573.00
 17.07     539.36
 17.17     606.94
 17.27     578.89
 17.37     583.72
 17.47     507.00
 17.57     576.00
 17.67     514.00
 17.77     576.97
 17.87     503.00
 17.97     539.79
 18.07     569.00
 18.17     552.00
 18.27     571.00
 18.37     534.00
 18.47     515.00
 18.57     536.00
 18.67     540.00
 18.77     536.00
 18.87     585.00
 18.97     572.00
 19.07     526.74
 19.17     563.00
 19.27     545.00
 19.37     548.00
 19.47     562.34
 19.57     548.00
 19.67     561.00
 19.77     590.56
 19.87     588.47
 19.97     532.00
 20.07     587.37
 20.17     599.00
 20.27     526.00
 20.37     549.00
 20.47     544.00
 20.57     550.00
 20.67     554.00
 20.77     540.00
 20.87     600.00
 20.97     547.32
 21.07     578.00
 21.17     593.69
 21.27     557.00
 21.37     540.00
 21.47     506.70
 21.57     580.00
 21.67     533.00
 21.77     538.51
 21.87     600.00
 21.97     545.00
 22.07     564.00
 22.17     540.00
 22.27     576.00
 22.37     508.00
 22.47     583.85
 22.57     555.00
 22.67     555.00
 22.77     569.42
 22.87     535.00
 22.97     568.57
 23.07     545.00
 23.17     557.00
 23.27     560.72
 23.37     538.00
 23.47     545.00
 23.57     535.00
 23.67     549.00
 23.77     577.65
 23.87     545.00
 23.97     568.00
 24.07     585.00
 24.17     554.30
 24.27     514.97
 24.37     596.22
 24.47     591.00
 24.57     612.00
 24.67     605.00
 24.77     599.24
 24.87     659.42
 24.97     634.11
 25.07     590.00
 25.17     577.00
 25.27     544.00
 25.37     585.00
 25.47     522.00
 25.57     525.00
 25.67     584.00
 25.77     584.00
 25.87     498.00
 25.97     527.82
 26.07     570.04
 26.17     556.00
 26.27     540.00
 26.37     542.00
 26.47     586.00
 26.57     581.80
 26.67     549.00
 26.77     521.64
 26.87     537.00
 26.97     561.37
 27.07     555.61
 27.17     554.18
 27.27     562.00
 27.37     570.00
 27.47     517.99
 27.57     590.97
 27.67     554.07
 27.77     554.00
 27.87     598.00
 27.97     669.00
 28.07     739.00
 28.17     926.04
 28.27     993.69
 28.37     852.04
 28.47     798.00
 28.57     749.06
 28.67     694.00
 28.77     752.00
 28.87     801.34
 28.97     757.00
 29.07     765.00
 29.17     696.00
 29.27     695.00
 29.37     591.00
 29.47     626.00
 29.57     541.00
 29.67     627.00
 29.77     560.00
 29.87     598.41
 29.97     538.00
 30.07     543.00
 30.17     541.00
 30.27     543.00
 30.37     525.32
 30.47     559.23
 30.57     503.85
 30.67     536.72
 30.77     625.00
 30.87     601.00
 30.97     622.00
 31.07     616.20
 31.17     626.26
 31.27     538.00
 31.37     566.00
 31.47     535.00
 31.57     529.12
 31.67     578.00
 31.77     505.00
 31.87     506.00
 31.97     487.91
 32.07     564.00
 32.17     489.67
 32.27     544.00
 32.37     567.00
 32.47     532.00
 32.57     577.00
 32.67     537.00
 32.77     539.00
 32.87     552.00
 32.97     490.04
 33.07     559.38
 33.17     586.00
 33.27     587.00
 33.37     564.00
 33.47     551.82
 33.57     583.00
 33.67     649.00
 33.77     761.22
 33.87     921.00
 33.97    1035.26
 34.07    1064.21
 34.17    1032.99
 34.27     946.32
 34.37     764.00
 34.47     649.00
 34.57     580.01
 34.67     561.00
 34.77     576.18
 34.87     489.00
 34.97     495.97
 35.07     512.00
 35.17     497.00
 35.27     528.21
 35.37     486.00
 35.47     491.00
 35.57     473.44
 35.67     543.00
 35.77     488.00
 35.87     507.73
 35.97     558.00
 36.07     524.00
 36.17     518.00
 36.27     497.68
 36.37     513.00
 36.47     514.00
 36.57     510.00
 36.67     552.02
 36.77     487.00
 36.87     539.21
 36.97     516.54
 37.07     533.00
 37.17     537.89
 37.27     500.00
 37.37     543.00
 37.47     553.00
 37.57     567.00
 37.67     567.00
 37.77     539.00
 37.87     516.00
 37.97     520.00
 38.07     521.73
 38.17     493.00
 38.27     572.00
 38.37     528.65
 38.47     517.00
 38.57     505.00
 38.67     544.08
 38.77     516.47
 38.87     477.00
 38.97     477.00
 39.07     504.00
 39.17     494.00
 39.27     499.00
 39.37     473.24
 39.47     473.00
 39.57     499.00
 39.67     482.18
 39.77     484.00
 39.87     520.00
 39.97     481.00
 40.07     499.55
 40.17     547.34
 40.27     466.70
 40.37     478.00
 40.47     511.00
 40.57     518.00
 40.67     530.00
 40.77     489.00
 40.87     483.00
 40.97     523.00
 41.07     520.00
 41.17     487.00
 41.27     517.18
 41.37     547.38
 41.47     497.00
 41.57     474.00
 41.67     466.40
 41.77     482.02
 41.87     492.00
 41.97     484.00
 42.07     533.00
 42.17     528.00
 42.27     511.00
 42.37     501.00
 42.47     552.00
 42.57     655.47
 42.67     615.11
 42.77     594.00
 42.87     606.59
 42.97     557.00
 43.07     603.00
 43.17     526.01
 43.27     546.00
 43.37     529.00
 43.47     518.65
 43.57     485.00
 43.67     524.00
 43.77     482.00
 43.87     493.00
 43.97     486.66
 44.07     510.00
 44.17     505.07
 44.27     493.00
 44.37     499.32
 44.47     478.00
 44.57     503.00
 44.67     535.00
 44.77     545.99
 44.87     530.40
 44.97     490.00
 45.07     543.27
 45.17     491.00
 45.27     464.00
 45.37     523.00
 45.47     470.46
 45.57     508.00
 45.67     482.00
 45.77     515.00
 45.87     501.00
 45.97     517.00
 46.07     490.00
 46.17     502.00
 46.27     488.00
 46.37     516.06
 46.47     529.00
 46.57     512.00
 46.67     465.49
 46.77     562.00
 46.87     500.00
 46.97     519.00
 47.07     533.21
 47.17     484.00
 47.27     494.91
 47.37     533.00
 47.47     542.00
 47.57     541.00
 47.67     542.00
 47.77     632.00
 47.87     581.00
 47.97     593.22
 48.07     594.00
 48.17     586.00
 48.27     591.64
 48.37     500.45
 48.47     548.28
 48.57     486.00
 48.67     535.00
 48.77     530.85
 48.87     530.00
 48.97     573.00
 49.07     599.09
 49.17     546.00
 49.27     600.03
 49.37     673.00
 49.47     679.00
 49.57     786.00
 49.67     888.00
 49.77    1087.95
 49.87    1417.00
 49.97    1848.22
 50.07    2180.18
 50.17    2567.25
 50.27    2514.93
 50.37    2265.00
 50.47    1929.86
 50.57    1452.00
 50.67    1099.19
 50.77     842.51
 50.87     730.00
 50.97     709.91
 51.07     629.00
 51.17     601.40
 51.27     634.29
 51.37     584.00
 51.47     551.54
 51.57     520.92
 51.67     580.00
 51.77     497.44
 51.87     569.00
 51.97     580.00
 52.07     567.00
 52.17     567.40
 52.27     527.99
 52.37     524.63
 52.47     527.00
 52.57     556.00
 52.67     576.66
 52.77     626.71
 52.87     645.00
 52.97     753.00
 53.07     768.00
 53.17     942.00
 53.27    1067.00
 53.37    1136.66
 53.47    1198.00
 53.57    1152.55
 53.67    1124.18
 53.77     931.00
 53.87     845.00
 53.97     821.29
 54.07     725.03
 54.17     659.81
 54.27     576.00
 54.37     575.50
 54.47     595.00
 54.57     565.00
 54.67     563.00
 54.77     575.00
 54.87     526.00
 54.97     540.00
 55.07     510.97
 55.17     571.79
 55.27     591.71
 55.37     553.00
 55.47     554.00
 55.57     588.00
 55.67     582.00
 55.77     570.00
 55.87     650.87
 55.97     624.00
 56.07     721.00
 56.17     749.00
 56.27     923.00
 56.37    1097.00
 56.47    1514.40
 56.57    1764.19
 56.67    2118.00
 56.77    2566.54
 56.87    2597.00
 56.97    2655.00
 57.07    2328.99
 57.17    2054.00
 57.27    1689.00
 57.37    1238.23
 57.47    1087.39
 57.57     906.67
 57.67     717.26
 57.77     753.00
 57.87     735.00
 57.97     701.00
 58.07     697.00
 58.17     748.00
 58.27     795.00
 58.37     808.00
 58.47     921.40
 58.57    1080.00
 58.67    1239.00
 58.77    1273.00
 58.87    1432.00
 58.97    1439.23
 59.07    1503.00
 59.17    1516.00
 59.27    1355.25
 59.37    1390.00
 59.47    1177.77
 59.57    1185.00
 59.67    1204.00
 59.77    1211.09
 59.87    1194.00
 59.97    1361.00
 60.07    1447.68
 60.17    1546.00
 60.27    1664.00
 60.37    1602.00
 60.47    1461.00
 60.57    1229.09
 60.67    1119.00
 60.77     857.66
 60.87     752.00
 60.97     684.00
 61.07     635.00
 61.17     676.91
 61.27     666.00
 61.37     622.65
 61.47     654.00
 61.57     763.00
 61.67     891.00
 61.77    1012.00
 61.87    1083.00
 61.97    1209.00
 62.07    1309.00
 62.17    1369.00
 62.27    1329.00
 62.37    1280.20
 62.47    1169.00
 62.57    1027.00
 62.67     890.00
 62.77     757.95
 62.87     685.00
 62.97     646.00
 63.07     586.00
 63.17     537.59
 63.27     553.10
 63.37     605.60
 63.47     575.48
 63.57     543.00
 63.67     607.53
 63.77     556.41
 63.87     629.31
 63.97     619.09
 64.07     719.95
 64.17     785.00
 64.27     796.08
 64.37     913.00
 64.47     913.33
 64.57     969.28
 64.67    1054.00
 64.77    1031.00
 64.87     989.00
 64.97     933.89
 65.07     846.00
 65.17     821.53
 65.27     749.00
 65.37     722.00
 65.47     671.00
 65.57     633.00
 65.67     636.00
 65.77     587.00
 65.87     594.00
 65.97     542.00
 66.07     556.78
 66.17     530.00
 66.27     518.31
 66.37     562.00
 66.47     550.54
 66.57     611.04
 66.67     598.00
 66.77     594.14
 66.87     581.00
 66.97     632.28
 67.07     670.00
 67.17     689.58
 67.27     744.00
 67.37     847.67
 67.47    1034.00
 67.57    1306.00
 67.67    1558.00
 67.77    1870.13
 67.87    2016.65
 67.97    2260.00
 68.07    2494.00
 68.17    2378.58
 68.27    2333.36
 68.37    2022.00
 68.47    1829.59
 68.57    1536.00
 68.67    1309.92
 68.77    1060.00
 68.87     941.65
 68.97     742.00
 69.07     690.59
 69.17     687.00
 69.27     602.00
 69.37     613.00
 69.47     600.00
 69.57     540.72
 69.67     577.00
 69.77     598.00
 69.87     580.00
 69.97     532.00
 70.07     556.16
 70.17     583.86
 70.27     590.63
 70.37     570.00
 70.47     579.00
 70.57     603.00
 70.67     572.00
 70.77     575.00
 70.87     600.62
 70.97     644.00
 71.07     710.47
 71.17     708.00
 71.27     850.22
 71.37    1012.69
 71.47    1046.00
 71.57    1249.39
 71.67    1428.00
 71.77    1724.02
 71.87    1829.00
 71.97    1917.31
 72.07    1961.00
 72.17    1867.00
 72.27    1747.56
 72.37    1674.04
 72.47    1497.00
 72.57    1334.72
 72.67    1134.03
 72.77    1058.38
 72.87     988.95
 72.97     853.48
 73.07     781.00
 73.17     762.00
 73.27     688.00
 73.37     670.41
 73.47     566.00
 73.57     589.00
 73.67     597.00
 73.77     586.00
 73.87     602.00
 73.97     594.00
 74.07     608.49
 74.17     597.00
 74.27     604.00
 74.37     665.00
 74.47     550.33
 74.57     591.00
 74.67     614.00
 74.77     644.00
 74.87     517.79
 74.97     565.29
 75.07     530.14
 75.17     564.00
 75.27     510.19
 75.37     576.00
 75.47     569.00
 75.57     547.51
 75.67     550.00
 75.77     560.03
 75.87     603.00
 75.97     621.00
 76.07     607.00
 76.17     617.00
 76.27     686.00
 76.37     701.00
 76.47     757.59
 76.57     692.00
 76.67     691.00
 76.77     693.00
 76.87     658.00
 76.97     644.00
 77.07     672.00
 77.17     568.00
 77.27     569.00
 77.37     595.00
 77.47     545.76
 77.57     584.43
 77.67     545.86
 77.77     481.00
 77.87     513.00
 77.97     498.97
 78.07     523.00
 78.17     474.00
 78.27     484.00
 78.37     549.00
 78.47     533.00
 78.57     495.16
 78.67     491.46
 78.77     528.00
 78.87     536.00
 78.97     548.49
 79.07     549.00
 79.17     496.40
 79.27     515.08
 79.37     513.00
 79.47     490.00
 79.57     531.00
 79.67     541.00
 79.77     580.00
 79.87     545.27
 79.97     536.10
 80.07     595.00
 80.17     559.37
 80.27     569.00
 80.37     599.00
 80.47     590.00
 80.57     582.80
 80.67     588.19
 80.77     650.00
 80.87     602.00
 80.97     689.00
 81.07     702.00
 81.17     712.00
 81.27     767.00
 81.37     789.00
 81.47     803.01
 81.57     756.00
 81.67     755.75
 81.77     752.54
 81.87     719.00
 81.97     700.00
 82.07     714.68
 82.17     629.97
 82.27     619.86
 82.37     633.00
 82.47     617.00
 82.57     567.00
 82.67     573.00
 82.77     574.95
 82.87     540.00
 82.97     571.73
 83.07     538.00
 83.17     535.00
 83.27     528.00
 83.37     526.00
 83.47     498.00
 83.57     542.00
 83.67     533.32
 83.77     550.00
 83.87     577.00
 83.97     613.59
 84.07     583.00
 84.17     608.90
 84.27     559.15
 84.37     530.66
 84.47     543.00
 84.57     546.00
 84.67     540.10
 84.77     501.00
 84.87     535.00
 84.97     508.96
 85.07     580.00
 85.17     531.00
 85.27     581.00
 85.37     544.00
 85.47     502.98
 85.57     493.00
 85.67     490.00
 85.77     494.57
 85.87     508.66
 85.97     518.02
 86.07     543.00
 86.17     507.00
 86.27     559.00
 86.37     568.55
 86.47     558.00
 86.57     552.00
 86.67     595.89
 86.77     620.10
 86.87     546.13
 86.97     628.00
 87.07     654.00
 87.17     591.36
 87.27     620.06
 87.37     669.00
 87.47     624.68
 87.57     653.00
 87.67     588.26
 87.77     608.07
 87.87     659.76
 87.97     645.75
 88.07     588.00
 88.17     595.00
 88.27     608.00
 88.37     593.00
 88.47     568.00
 88.57     612.87
 88.67     569.72
 88.77     584.00
 88.87     646.00
 88.97     613.00
 89.07     553.90
 89.17     627.00
 89.27     629.78
 89.37     596.00
 89.47     609.00
 89.57     592.91
 89.67     557.00
 89.77     560.00
 89.87     564.00
 89.97     569.14
 90.07     564.00
 90.17     531.57
 90.27     509.00
 90.37     544.00
 90.47     525.00
 90.57     509.00
 90.67     486.00
 90.77     491.00
 90.87     545.00
 90.97     513.51
 91.07     512.00
 91.17     534.39
 91.27     531.00
 91.37     525.00
 91.47     546.00
 91.57     546.43
 91.67     544.29
 91.77     589.76
 91.87     542.00
 91.97     537.00
 92.07     523.35
 92.17     559.00
 92.27     569.36
 92.37     593.00
 92.47     649.30
 92.57     652.00
 92.67     665.00
 92.77     697.00
 92.87     674.00
 92.97     710.16
 93.07     705.00
 93.17     793.00
 93.27     762.00
 93.37     794.31
 93.47     780.00
 93.57     861.00
 93.67     831.88
 93.77     847.00
 93.87     875.00
 93.97     791.43
 94.07     808.00
 94.17     841.20
 94.27     885.00
 94.37     888.00
 94.47     930.00
 94.57     907.00
 94.67     821.32
 94.77     879.69
 94.87     972.00
 94.97     927.00
 95.07     869.36
 95.17     868.00
 95.27     818.00
 95.37     825.00
 95.47     798.44
 95.57     727.57
 95.67     744.00
 95.77     740.67
 95.87     705.05
 95.97     707.00
 96.07     668.00
 96.17     714.00
 96.27     741.00
 96.37     762.00
 96.47     800.00
 96.57     869.28
 96.67     882.32
 96.77     948.95
 96.87    1058.00
 96.97    1130.00
 97.07    1242.00
 97.17    1225.33
 97.27    1345.27
 97.37    1447.98
 97.47    1375.00
 97.57    1408.00
 97.67    1403.00
 97.77    1312.35
 97.87    1294.76
 97.97    1261.00
 98.07    1253.92
 98.17    1179.00
 98.27    1076.00
 98.37     994.00
 98.47     961.48
 98.57     925.00
 98.67     893.00
 98.77     814.00
 98.87     856.38
 98.97     811.00
 99.07     786.40
 99.17     800.00
 99.27     889.00
 99.37     954.40
 99.47     953.00
 99.57    1075.00
 99.67    1222.00
 99.77    1254.68
 99.87    1435.00
 99.97    1576.94
100.07    1707.00
100.17    1730.62
100.27    1762.44
100.37    1951.00
100.47    2070.00
100.57    2038.00
100.67    2046.07
100.77    2202.00
100.87    2012.46
100.97    2025.00
101.07    2028.00
101.17    1867.00
101.27    1766.00
101.37    1645.95
101.47    1645.20
101.57    1484.00
101.67    1439.00
101.77    1327.64
101.87    1282.00
101.97    1166.00
102.07    1188.00
102.17    1223.88
102.27    1090.87
102.37    1148.00
102.47    1088.00
102.57    1132.68
102.67     994.00
102.77     976.00
102.87    1007.85
102.97    1017.50
103.07     905.09
103.17     867.00
103.27     822.50
103.37     800.00
103.47     818.00
103.57     748.00
103.67     674.00
103.77     647.90
103.87     637.00
103.97     614.00
104.07     622.00
104.17     559.54
104.27     582.86
104.37     556.25
104.47     570.71
104.57     551.23
104.67     533.00
104.77     570.00
104.87     534.17
104.97     549.00
105.07     554.00
105.17     577.00
105.27     514.22
105.37     531.00
105.47     560.00
105.57     503.00
105.67     575.00
105.77     550.00
105.87     557.00
105.97     601.60
106.07     587.00
106.17     559.89
106.27     575.00
106.37     612.00
106.47     598.00
106.57     603.53
106.67     644.00
106.77     675.82
106.87     660.00
106.97     665.00
107.07     651.00
107.17     672.00
107.27     650.00
107.37     681.00
107.47     698.83
107.57     739.52
107.67     665.77
107.77     722.25
107.87     672.00
107.97     710.00
108.07     703.72
108.17     662.00
108.27     722.22
108.37     675.00
108.47     710.34
108.57     662.00
108.67     649.73
108.77     640.60
108.87     661.00
108.97     695.00
109.07     675.64
109.17     698.12
109.27     686.00
109.37     644.42
109.47     624.00
109.57     655.00
109.67     600.00
109.77     623.69
109.87     575.00
109.97     577.34
110.07     609.00
110.17     559.49
110.27     613.00
110.37     521.00
110.47     534.18
110.57     577.00
110.67     546.00
110.77     536.00
110.87     540.07
110.97     493.73
111.07     544.00
111.17     539.00
111.27     505.08
111.37     495.18
111.47     523.00
111.57     519.00
111.67     554.47
111.77     555.00
111.87     598.00
111.97     547.52
112.07     582.00
112.17     574.00
112.27     579.25
112.37     633.00
112.47     608.30
112.57     566.00
112.67     582.00
112.77     635.66
112.87     672.00
112.97     692.00
113.07     684.00
113.17     660.00
113.27     740.00
113.37     781.21
113.47     736.00
113.57     783.00
113.67     813.49
113.77     869.00
113.87     878.00
113.97     979.00
114.07    1052.39
114.17    1066.88
114.27    1186.13
114.37    1189.00
114.47    1242.61
114.57    1441.00
114.67    1563.36
114.77    1665.19
114.87    1941.22
114.97    2214.00
115.07    2360.00
115.17    2599.00
115.27    2785.00
115.37    3001.88
115.47    3452.00
115.57    3727.14
115.67    4154.03
115.77    4520.00
115.87    4885.98
115.97    5264.64
116.07    5617.00
116.17    6157.96
116.27    6225.00
116.37    6539.52
116.47    6816.00
116.57    6981.00
116.67    7031.00
116.77    6931.55
116.87    6785.00
116.97    6548.00
117.07    6342.00
117.17    6149.00
117.27    5899.93
117.37    5262.00
117.47    4989.64
117.57    4583.00
117.67    4297.00
117.77    3925.20
117.87    3529.00
117.97    3061.48
118.07    2897.79
118.17    2491.00
118.27    2227.00
118.37    1998.00
118.47    1735.11
118.57    1503.14
118.67    1403.00
118.77    1264.37
118.87    1148.00
118.97     980.00
119.07     960.00
119.17     901.00
119.27     865.10
119.37     807.00
119.47     733.05
119.57     706.00
119.67     730.45
119.77     673.34
119.87     626.00
119.97     635.19
120.07     600.00
120.17     670.00
120.27     633.25
120.37     572.00
120.47     575.00
120.57     613.37
120.67     561.00
120.77     590.00
120.87     549.00
120.97     532.00
121.07     572.00
121.17     573.00
121.27     558.00
121.37     552.00
121.47     574.00
121.57     561.00
121.67     562.89
121.77     619.00
121.87     635.54
121.97     608.00
122.07     636.00
122.17     618.00
122.27     614.00
122.37     648.34
122.47     620.00
122.57     650.00
122.67     629.00
122.77     636.00
122.87     589.48
122.97     683.33
123.07     619.42
123.17     629.17
123.27     666.00
123.37     671.00
123.47     651.00
123.57     659.00
123.67     683.00
123.77     623.99
123.87     589.48
123.97     624.00
124.07     601.00
124.17     596.00
124.27     599.00
124.37     597.76
124.47     657.00
124.57     568.05
124.67     565.00
124.77     598.67
124.87     583.00
124.97     545.52
