  9.97     595.00
 10.07     570.00
 10.17     519.46
 10.27     629.28
 10.37     586.00
 10.47     623.00
 10.57     567.00
 10.67     580.62
 10.77     613.00
 10.87     589.00
 10.97     607.00
 11.07     603.09
 11.17     619.45
 11.27     612.00
 11.37     547.00
 11.47     594.00
 11.57     632.00
 11.67     616.41
 11.77     637.00
 11.87     653.00
 11.97     656.00
 12.07     716.00
 12.17     698.00
 12.27     672.00
 12.37     643.00
 12.47     636.00
 12.57     624.00
 12.67     551.50
 12.77     601.00
 12.87     538.12
 12.97     546.00
 13.07     545.00
 13.17     588.35
 13.27     554.00
 13.37     582.00
 13.47     501.00
 13.57     564.00
 13.67     540.30
 13.77     539.50
 13.87     624.95
 13.97     565.00
 14.07     594.62
 14.17     553.00
 14.27     616.39
 14.37     522.80
 14.47     584.94
 14.57     595.00
 14.67     537.00
 14.77     554.00
 14.87     552.00
 14.97     534.97
 15.07     566.00
 15.17     600.00
 15.27     588.47
 15.37     549.00
 15.47     534.00
 15.57     522.58
 15.67     567.00
 15.77     559.00
 15.87     556.12
 15.97     556.68
 16.07     571.00
 16.17     569.03
 16.27     559.00
 16.37     583.00
 16.47     601.32
 16.57     533.00
 16.67     502.00
 16.77     577.00
 16.87     561.00
 16.97     597.00
 17.07     589.00
 17.17     590.47
 17.27     591.00
 17.37     556.00
 17.47     551.00
 17.57     520.00
 17.67     574.21
 17.77     541.00
 17.87     567.00
 17.97     595.00
 18.07     576.00
 18.17     529.00
 18.27     531.00
 18.37     537.00
 18.47     548.00
 18.57     587.23
 18.67     562.00
 18.77     598.31
 18.87     580.00
 18.97     548.00
 19.07     588.00
 19.17     535.00
 19.27     594.00
 19.37     538.21
 19.47     539.00
 19.57     521.00
 19.67     554.52
 19.77     592.00
 19.87     526.00
 19.97     559.98
 20.07     509.64
 20.17     570.00
 20.27     560.03
 20.37     545.00
 20.47     555.00
 20.57     536.00
 20.67     558.99
 20.77     576.05
 20.87     529.00
 20.97     557.30
 21.07     580.00
 21.17     508.16
 21.27     562.00
 21.37     540.00
 21.47     541.00
 21.57     508.00
 21.67     595.00
 21.77     597.36
 21.87     512.64
 21.97     556.17
 22.07     539.00
 22.17     540.00
 22.27     536.00
 22.37     552.00
 22.47     555.00
 22.57     514.54
 22.67     532.00
 22.77     592.67
 22.87     548.32
 22.97     513.00
 23.07     559.00
 23.17     512.00
 23.27     569.00
 23.37     551.85
 23.47     535.00
 23.57     597.34
 23.67     510.00
 23.77     527.00
 23.87     544.00
 23.97     593.00
 24.07     557.00
 24.17     536.00
 24.27     551.42
 24.37     589.43
 24.47     637.00
 24.57     586.00
 24.67     653.55
 24.77     610.85
 24.87     665.00
 24.97     636.00
 25.07     617.00
 25.17     575.00
 25.27     598.00
 25.37     531.00
 25.47     563.00
 25.57     520.60
 25.67     504.01
 25.77     558.00
 25.87     543.00
 25.97     566.75
 26.07     520.00
 26.17     560.00
 26.27     515.69
 26.37     566.00
 26.47     537.20
 26.57     567.80
 26.67     543.54
 26.77     551.87
 26.87     490.24
 26.97     609.00
 27.07     519.15
 27.17     555.00
 27.27     558.00
 27.37     496.67
 27.47     500.13
 27.57     558.94
 27.67     496.35
 27.77     571.00
 27.87     609.00
 27.97     686.00
 28.07     741.33
 28.17     861.20
 28.27    1000.61
 28.37     874.00
 28.47     821.90
 28.57     685.00
 28.67     702.00
 28.77     784.15
 28.87     834.55
 28.97     811.69
 29.07     726.00
 29.17     725.00
 29.27     675.45
 29.37     600.00
 29.47     570.00
 29.57     544.07
 29.67     527.10
 29.77     558.00
 29.87     566.00
 29.97     568.48
 30.07     549.10
 30.17     556.00
 30.27     570.00
 30.37     597.00
 30.47     580.41
 30.57     544.00
 30.67     549.92
 30.77     669.00
 30.87     614.92
 30.97     595.00
 31.07     636.00
 31.17     579.00
 31.27     518.91
 31.37     530.77
 31.47     568.45
 31.57     526.00
 31.67     563.00
 31.77     516.00
 31.87     543.00
 31.97     481.02
 32.07     565.00
 32.17     534.00
 32.27     536.00
 32.37     536.73
 32.47     490.91
 32.57     552.15
 32.67     533.00
 32.77     555.00
 32.87     536.14
 32.97     536.00
 33.07     518.26
 33.17     550.08
 33.27     508.00
 33.37     516.01
 33.47     588.63
 33.57     601.27
 33.67     641.36
 33.77     765.83
 33.87     855.00
 33.97    1080.00
 34.07    1108.00
 34.17    1075.56
 34.27     884.00
 34.37     752.70
 34.47     656.00
 34.57     559.00
 34.67     546.00
 34.77     549.00
 34.87     536.00
 34.97     575.15
 35.07     548.00
 35.17     536.83
 35.27     541.00
 35.37     542.98
 35.47     528.00
 35.57     506.00
 35.67     565.40
 35.77     483.53
 35.87     562.00
 35.97     535.00
 36.07     521.00
 36.17     516.45
 36.27     519.00
 36.37     542.81
 36.47     523.00
 36.57     483.00
 36.67     537.00
 36.77     537.00
 36.87     524.00
 36.97     541.30
 37.07     490.00
 37.17     486.76
 37.27     553.00
 37.37     496.00
 37.47     491.00
 37.57     497.00
 37.67     547.00
 37.77     503.00
 37.87     532.00
 37.97     496.21
 38.07     507.00
 38.17     465.45
 38.27     551.99
 38.37     488.00
 38.47     518.00
 38.57     502.00
 38.67     517.48
 38.77     497.00
 38.87     515.00
 38.97     503.00
 39.07     504.00
 39.17     549.00
 39.27     548.47
 39.37     474.95
 39.47     508.00
 39.57     553.60
 39.67     527.00
 39.77     500.64
 39.87     469.00
 39.97     483.00
 40.07     493.00
 40.17     505.00
 40.27     482.00
 40.37     521.22
 40.47     432.00
 40.57     501.00
 40.67     497.00
 40.77     510.78
 40.87     487.90
 40.97     470.00
 41.07     518.00
 41.17     476.10
 41.27     475.00
 41.37     507.00
 41.47     516.00
 41.57     529.01
 41.67     490.09
 41.77     464.10
 41.87     507.13
 41.97     541.38
 42.07     547.00
 42.17     499.73
 42.27     557.00
 42.37     562.37
 42.47     559.73
 42.57     594.84
 42.67     578.00
 42.77     582.00
 42.87     584.00
 42.97     575.00
 43.07     536.47
 43.17     531.00
 43.27     501.00
 43.37     483.84
 43.47     492.00
 43.57     502.00
 43.67     530.86
 43.77     474.00
 43.87     557.18
 43.97     529.00
 44.07     511.00
 44.17     517.81
 44.27     524.56
 44.37     497.00
 44.47     492.00
 44.57     536.00
 44.67     496.00
 44.77     495.00
 44.87     537.91
 44.97     535.00
 45.07     477.00
 45.17     519.00
 45.27     490.00
 45.37     515.00
 45.47     489.00
 45.57     496.00
 45.67     490.00
 45.77     548.00
 45.87     545.02
 45.97     490.00
 46.07     494.00
 46.17     492.00
 46.27     512.00
 46.37     466.12
 46.47     508.00
 46.57     487.00
 46.67     478.75
 46.77     497.00
 46.87     568.00
 46.97     538.00
 47.07     497.00
 47.17     543.11
 47.27     491.00
 47.37     561.97
 47.47     586.00
 47.57     588.00
 47.67     606.00
 47.77     540.00
 47.87     572.00
 47.97     553.46
 48.07     613.05
 48.17     586.00
 48.27     575.00
 48.37     588.39
 48.47     543.86
 48.57     551.11
 48.67     513.35
 48.77     537.00
 48.87     593.00
 48.97     521.00
 49.07     533.95
 49.17     594.00
 49.27     587.00
 49.37     645.00
 49.47     669.00
 49.57     679.59
 49.67     928.94
 49.77    1168.00
 49.87    1477.00
 49.97    1826.00
 50.07    2291.00
 50.17    2568.36
 50.27    2575.97
 50.37    2243.00
 50.47    1832.00
 50.57    1465.40
 50.67    1092.88
 50.77     909.76
 50.87     687.00
 50.97     715.00
 51.07     647.00
 51.17     636.16
 51.27     562.00
 51.37     621.00
 51.47     622.50
 51.57     566.00
 51.67     531.00
 51.77     532.00
 51.87     566.00
 51.97     559.82
 52.07     503.79
 52.17     486.00
 52.27     582.00
 52.37     549.00
 52.47     544.99
 52.57     578.00
 52.67     592.00
 52.77     581.45
 52.87     637.00
 52.97     716.00
 53.07     844.00
 53.17     963.00
 53.27    1028.75
 53.37    1143.80
 53.47    1165.00
 53.57    1180.00
 53.67    1202.18
 53.77     967.00
 53.87     865.00
 53.97     806.00
 54.07     649.00
 54.17     664.00
 54.27     609.00
 54.37     581.58
 54.47     567.00
 54.57     557.00
 54.67     583.89
 54.77     568.00
 54.87     586.25
 54.97     528.75
 55.07     583.00
 55.17     546.12
 55.27     588.74
 55.37     607.00
 55.47     565.00
 55.57     595.00
 55.67     615.00
 55.77     561.00
 55.87     635.65
 55.97     630.00
 56.07     657.00
 56.17     790.07
 56.27     896.00
 56.37    1176.00
 56.47    1444.72
 56.57    1852.38
 56.67    2130.00
 56.77    2505.00
 56.87    2603.00
 56.97    2575.00
 57.07    2328.00
 57.17    2129.00
 57.27    1664.00
 57.37    1245.33
 57.47    1043.17
 57.57     882.00
 57.67     799.00
 57.77     748.00
 57.87     673.00
 57.97     665.00
 58.07     710.00
 58.17     658.94
 58.27     718.61
 58.37     788.00
 58.47     994.00
 58.57    1037.00
 58.67    1117.00
 58.77    1281.00
 58.87    1364.34
 58.97    1381.00
 59.07    1405.71
 59.17    1405.78
 59.27    1427.00
 59.37    1359.00
 59.47    1143.06
 59.57    1179.00
 59.67    1178.00
 59.77    1217.00
 59.87    1189.72
 59.97    1367.00
 60.07    1337.92
 60.17    1487.00
 60.27    1606.00
 60.37    1427.96
 60.47    1405.00
 60.57    1216.27
 60.67    1107.86
 60.77     950.00
 60.87     809.18
 60.97     662.58
 61.07     675.00
 61.17     667.99
 61.27     647.00
 61.37     656.00
 61.47     724.00
 61.57     769.24
 61.67     905.92
 61.77     945.00
 61.87    1158.36
 61.97    1259.00
 62.07    1415.88
 62.17    1395.00
 62.27    1372.00
 62.37    1347.94
 62.47    1271.83
 62.57    1009.00
 62.67     882.00
 62.77     754.09
 62.87     656.00
 62.97     658.00
 63.07     616.00
 63.17     612.24
 63.27     578.00
 63.37     592.86
 63.47     570.89
 63.57     609.13
 63.67     599.00
 63.77     586.21
 63.87     612.00
 63.97     694.00
 64.07     744.00
 64.17     814.00
 64.27     859.17
 64.37     961.00
 64.47     936.20
 64.57     983.59
 64.67    1019.00
 64.77     969.00
 64.87     973.00
 64.97     899.00
 65.07     844.47
 65.17     799.50
 65.27     718.00
 65.37     649.57
 65.47     645.00
 65.57     646.27
 65.67     558.00
 65.77     640.30
 65.87     537.00
 65.97     546.00
 66.07     603.00
 66.17     514.00
 66.27     575.75
 66.37     511.00
 66.47     592.56
 66.57     562.00
 66.67     588.76
 66.77     585.00
 66.87     628.00
 66.97     602.00
 67.07     601.00
 67.17     703.29
 67.27     773.00
 67.37     876.00
 67.47    1100.62
 67.57    1290.78
 67.67    1569.00
 67.77    1871.00
 67.87    2075.56
 67.97    2414.00
 68.07    2391.00
 68.17    2351.00
 68.27    2265.00
 68.37    1992.00
 68.47    1789.00
 68.57    1547.00
 68.67    1216.28
 68.77    1065.05
 68.87     911.00
 68.97     764.00
 69.07     726.00
 69.17     660.00
 69.27     628.00
 69.37     626.01
 69.47     579.00
 69.57     550.00
 69.67     571.00
 69.77     588.24
 69.87     569.90
 69.97     552.21
 70.07     594.00
 70.17     620.00
 70.27     637.00
 70.37     544.00
 70.47     597.00
 70.57     613.00
 70.67     548.00
 70.77     643.45
 70.87     613.00
 70.97     653.00
 71.07     636.91
 71.17     767.00
 71.27     876.78
 71.37     960.59
 71.47    1118.00
 71.57    1326.98
 71.67    1506.00
 71.77    1599.00
 71.87    1789.22
 71.97    1915.26
 72.07    1856.22
 72.17    1867.00
 72.27    1723.00
 72.37    1601.00
 72.47    1400.00
 72.57    1319.00
 72.67    1128.00
 72.77     987.00
 72.87     889.00
 72.97     795.00
 73.07     830.96
 73.17     728.00
 73.27     690.72
 73.37     658.00
 73.47     692.15
 73.57     641.00
 73.67     580.86
 73.77     657.60
 73.87     575.00
 73.97     570.00
 74.07     655.00
 74.17     585.00
 74.27     631.00
 74.37     638.00
 74.47     637.00
 74.57     608.00
 74.67     641.00
 74.77     532.51
 74.87     592.34
 74.97     600.00
 75.07     579.00
 75.17     603.00
 75.27     582.00
 75.37     609.00
 75.47     578.00
 75.57     534.59
 75.67     589.00
 75.77     616.51
 75.87     613.00
 75.97     665.42
 76.07     636.00
 76.17     650.00
 76.27     626.00
 76.37     672.23
 76.47     684.00
 76.57     699.00
 76.67     720.00
 76.77     668.00
 76.87     706.14
 76.97     643.00
 77.07     616.00
 77.17     564.00
 77.27     598.00
 77.37     589.00
 77.47     605.98
 77.57     550.00
 77.67     590.63
 77.77     527.00
 77.87     506.00
 77.97     515.00
 78.07     491.00
 78.17     566.31
 78.27     522.00
 78.37     529.00
 78.47     529.00
 78.57     519.00
 78.67     516.00
 78.77     542.00
 78.87     514.26
 78.97     479.00
 79.07     495.00
 79.17     509.00
 79.27     573.00
 79.37     490.00
 79.47     544.76
 79.57     514.00
 79.67     500.00
 79.77     541.00
 79.87     537.00
 79.97     567.00
 80.07     556.56
 80.17     603.75
 80.27     511.00
 80.37     518.00
 80.47     627.00
 80.57     611.00
 80.67     603.21
 80.77     635.97
 80.87     723.74
 80.97     758.46
 81.07     695.00
 81.17     758.00
 81.27     712.00
 81.37     755.28
 81.47     694.00
 81.57     770.00
 81.67     791.00
 81.77     801.00
 81.87     754.68
 81.97     637.36
 82.07     704.00
 82.17     657.00
 82.27     649.00
 82.37     662.00
 82.47     597.00
 82.57     615.39
 82.67     596.09
 82.77     629.92
 82.87     568.00
 82.97     607.48
 83.07     594.00
 83.17     591.00
 83.27     518.05
 83.37     527.00
 83.47     562.00
 83.57     582.02
 83.67     534.58
 83.77     530.26
 83.87     556.00
 83.97     538.00
 84.07     617.03
 84.17     629.59
 84.27     621.00
 84.37     551.00
 84.47     614.00
 84.57     544.15
 84.67     608.00
 84.77     558.00
 84.87     585.93
 84.97     514.87
 85.07     520.00
 85.17     553.00
 85.27     506.00
 85.37     500.52
 85.47     568.00
 85.57     531.00
 85.67     515.00
 85.77     554.00
 85.87     563.93
 85.97     560.00
 86.07     469.00
 86.17     539.00
 86.27     571.00
 86.37     532.00
 86.47     581.00
 86.57     609.94
 86.67     630.00
 86.77     631.00
 86.87     627.00
 86.97     556.66
 87.07     623.00
 87.17     620.00
 87.27     667.00
 87.37     672.00
 87.47     671.36
 87.57     582.59
 87.67     639.00
 87.77     654.00
 87.87     617.60
 87.97     632.00
 88.07     560.86
 88.17     618.05
 88.27     597.46
 88.37     620.00
 88.47     607.77
 88.57     603.00
 88.67     616.42
 88.77     659.00
 88.87     604.00
 88.97     531.60
 89.07     632.42
 89.17     579.00
 89.27     631.00
 89.37     610.72
 89.47     597.00
 89.57     587.00
 89.67     570.00
 89.77     555.80
 89.87     635.60
 89.97     560.00
 90.07     574.46
 90.17     533.00
 90.27     527.26
 90.37     551.00
 90.47     524.00
 90.57     575.08
 90.67     572.23
 90.77     513.00
 90.87     579.29
 90.97     486.00
 91.07     503.11
 91.17     549.83
 91.27     503.00
 91.37     557.75
 91.47     511.00
 91.57     514.00
 91.67     525.00
 91.77     587.49
 91.87     538.00
 91.97     555.00
 92.07     621.56
 92.17     607.00
 92.27     565.00
 92.37     601.00
 92.47     619.00
 92.57     623.00
 92.67     686.00
 92.77     719.00
 92.87     746.32
 92.97     785.07
 93.07     724.00
 93.17     726.00
 93.27     760.07
 93.37     865.00
 93.47     814.00
 93.57     786.42
 93.67     819.00
 93.77     793.47
 93.87     842.51
 93.97     828.00
 94.07     826.73
 94.17     802.72
 94.27     834.43
 94.37     812.31
 94.47     887.50
 94.57     930.00
 94.67     938.48
 94.77     934.00
 94.87     888.00
 94.97     918.00
 95.07     906.59
 95.17     830.00
 95.27     888.00
 95.37     819.00
 95.47     751.55
 95.57     700.05
 95.67     750.82
 95.77     745.52
 95.87     680.00
 95.97     682.00
 96.07     730.10
 96.17     654.01
 96.27     714.00
 96.37     765.00
 96.47     865.81
 96.57     862.00
 96.67     986.00
 96.77    1043.59
 96.87    1127.00
 96.97    1126.00
 97.07    1299.41
 97.17    1376.33
 97.27    1413.00
 97.37    1331.28
 97.47    1378.15
 97.57    1467.00
 97.67    1381.54
 97.77    1343.00
 97.87    1321.25
 97.97    1235.00
 98.07    1260.00
 98.17    1159.00
 98.27    1110.00
 98.37    1015.00
 98.47     980.00
 98.57     914.61
 98.67     820.00
 98.77     829.00
 98.87     887.59
 98.97     842.00
 99.07     794.72
 99.17     900.80
 99.27     875.00
 99.37     966.00
 99.47    1038.00
 99.57    1121.00
 99.67    1232.00
 99.77    1394.00
 99.87    1405.00
 99.97    1627.00
100.07    1636.20
100.17    1727.11
100.27    1850.00
100.37    1917.00
100.47    1913.64
100.57    1999.00
100.67    1948.29
100.77    2145.74
100.87    2078.00
100.97    2020.00
101.07    1931.43
101.17    1805.00
101.27    1755.28
101.37    1672.00
101.47    1520.66
101.57    1472.00
101.67    1400.55
101.77    1340.00
101.87    1255.00
101.97    1190.00
102.07    1161.00
102.17    1109.00
102.27    1064.00
102.37    1058.00
102.47    1070.00
102.57    1071.00
102.67    1121.00
102.77    1089.00
102.87     951.00
102.97    1009.23
103.07     922.55
103.17     886.00
103.27     843.36
103.37     833.00
103.47     833.42
103.57     709.00
103.67     738.00
103.77     659.29
103.87     658.00
103.97     620.00
104.07     611.27
104.17     615.00
104.27     567.00
104.37     529.98
104.47     538.66
104.57     573.74
104.67     488.99
104.77     493.47
104.87     566.25
104.97     562.00
105.07     566.00
105.17     561.02
105.27     547.00
105.37     540.94
105.47     542.00
105.57     529.00
105.67     538.00
105.77     596.00
105.87     584.79
105.97     554.19
106.07     567.63
106.17     583.00
106.27     594.45
106.37     584.89
106.47     670.00
106.57     645.09
106.67     653.00
106.77     658.00
106.87     609.24
106.97     665.00
107.07     678.47
107.17     680.00
107.27     713.00
107.37     721.00
107.47     706.00
107.57     657.00
107.67     706.00
107.77     711.00
107.87     744.28
107.97     678.00
108.07     687.00
108.17     702.00
108.27     691.00
108.37     668.00
108.47     730.26
108.57     644.01
108.67     668.00
108.77     688.00
108.87     728.18
108.97     745.53
109.07     636.06
109.17     686.00
109.27     651.00
109.37     710.37
109.47     649.00
109.57     650.00
109.67     608.00
109.77     666.00
109.87     584.44
109.97     593.81
110.07     608.38
110.17     529.10
110.27     550.45
110.37     548.28
110.47     575.00
110.57     536.00
110.67     498.00
110.77     504.06
110.87     561.00
110.97     516.10
111.07     508.00
111.17     558.60
111.27     555.84
111.37     548.00
111.47     531.00
111.57     557.25
111.67     570.00
111.77     559.00
111.87     521.00
111.97     514.84
112.07     562.00
112.17     525.00
112.27     559.00
112.37     549.00
112.47     590.00
112.57     587.20
112.67     631.22
112.77     608.00
112.87     630.06
112.97     655.10
113.07     696.35
113.17     654.00
113.27     727.00
113.37     765.10
113.47     683.09
113.57     762.95
113.67     778.00
113.77     838.00
113.87     866.00
113.97     952.23
114.07     922.00
114.17     936.10
114.27    1046.00
114.37    1171.00
114.47    1328.00
114.57    1288.94
114.67    1541.00
114.77    1744.00
114.87    1905.00
114.97    2164.00
115.07    2227.59
115.17    2546.00
115.27    2828.83
115.37    3135.32
115.47    3505.00
115.57    3647.94
115.67    4115.00
115.77    4592.00
115.87    4759.00
115.97    5382.00
116.07    5717.35
116.17    6039.00
116.27    6327.00
116.37    6625.00
116.47    6654.00
116.57    6820.27
116.67    6922.71
116.77    6805.58
116.87    6792.00
116.97    6452.00
117.07    6282.00
117.17    5994.67
117.27    5616.84
117.37    5156.00
117.47    4945.51
117.57    4496.00
117.67    4238.00
117.77    3818.00
117.87    3482.00
117.97    3177.00
118.07    2877.40
118.17    2526.00
118.27    2195.01
118.37    2072.78
118.47    1689.00
118.57    1527.09
118.67    1460.00
118.77    1215.00
118.87    1204.09
118.97    1103.00
119.07    1041.48
119.17     874.71
119.27     781.00
119.37     817.00
119.47     756.00
119.57     734.00
119.67     677.23
119.77     646.00
119.87     657.00
119.97     640.00
120.07     651.25
120.17     629.00
120.27     582.00
120.37     584.00
120.47     589.42
120.57     585.00
120.67     611.00
120.77     603.96
120.87     559.00
120.97     616.00
121.07     569.00
121.17     579.04
121.27     587.00
121.37     572.00
121.47     611.00
121.57     573.00
121.67     572.00
121.77     582.00
121.87     602.15
121.97     620.00
122.07     636.00
122.17     649.00
122.27     621.00
122.37     659.36
122.47     638.00
122.57     645.00
122.67     687.66
122.77     616.36
122.87     642.52
122.97     613.00
123.07     653.00
123.17     627.38
123.27     628.52
123.37     616.24
123.47     615.00
123.57     592.50
123.67     678.67
123.77     601.67
123.87     623.00
123.97     575.96
124.07     633.34
124.17     565.61
124.27     584.00
124.37     610.00
124.47     649.53
124.57     650.00
124.67     620.54
124.77     587.00
124.87     583.55
124.97     619.00
