  9.97     618.00
 10.07     586.00
 10.17     575.00
 10.27     578.00
 10.37     627.00
 10.47     522.46
 10.57     544.01
 10.67     597.58
 10.77     559.00
 10.87     557.00
 10.97     595.89
 11.07     520.15
 11.17     590.00
 11.27     550.00
 11.37     528.13
 11.47     558.00
 11.57     604.00
 11.67     651.00
 11.77     545.56
 11.87     645.00
 11.97     592.36
 12.07     644.00
 12.17     677.00
 12.27     712.32
 12.37     713.00
 12.47     571.00
 12.57     647.50
 12.67     583.00
 12.77     548.00
 12.87     582.00
 12.97     538.00
 13.07     601.29
 13.17     565.00
 13.27     592.00
 13.37     530.00
 13.47     558.00
 13.57     553.16
 13.67     522.00
 13.77     573.63
 13.87     553.00
 13.97     596.36
 14.07     580.35
 14.17     541.00
 14.27     560.00
 14.37     562.84
 14.47     576.00
 14.57     523.26
 14.67     562.00
 14.77     563.00
 14.87     567.00
 14.97     542.50
 15.07     551.00
 15.17     545.00
 15.27     590.00
 15.37     575.00
 15.47     509.00
 15.57     585.00
 15.67     583.00
 15.77     531.00
 15.87     550.00
 15.97     620.00
 16.07     557.22
 16.17     534.82
 16.27     556.50
 16.37     559.00
 16.47     567.00
 16.57     574.83
 16.67     542.00
 16.77     570.69
 16.87     527.00
 16.97     562.32
 17.07     552.07
 17.17     516.00
 17.27     524.00
 17.37     536.00
 17.47     572.00
 17.57     539.60
 17.67     547.21
 17.77     557.00
 17.87     560.00
 17.97     571.00
 18.07     530.00
 18.17     524.00
 18.27     544.00
 18.37     538.00
 18.47     528.00
 18.57     570.12
 18.67     548.00
 18.77     561.00
 18.87     576.87
 18.97     539.02
 19.07     548.00
 19.17     474.00
 19.27     591.46
 19.37     559.00
 19.47     571.00
 19.57     559.50
 19.67     563.79
 19.77     541.44
 19.87     595.26
 19.97     547.85
 20.07     515.00
 20.17     588.23
 20.27     554.41
 20.37     554.32
 20.47     552.00
 20.57     565.00
 20.67     532.45
 20.77     592.82
 20.87     538.00
 20.97     531.80
 21.07     550.00
 21.17     555.99
 21.27     537.00
 21.37     548.00
 21.47     564.00
 21.57     549.00
 21.67     533.36
 21.77     582.00
 21.87     568.66
 21.97     535.00
 22.07     527.67
 22.17     549.00
 22.27     569.03
 22.37     565.76
 22.47     532.00
 22.57     565.00
 22.67     552.00
 22.77     535.00
 22.87     524.05
 22.97     535.00
 23.07     541.00
 23.17     579.21
 23.27     578.57
 23.37     573.27
 23.47     548.00
 23.57     526.00
 23.67     516.49
 23.77     562.39
 23.87     547.00
 23.97     576.00
 24.07     562.00
 24.17     563.00
 24.27     596.00
 24.37     550.03
 24.47     589.25
 24.57     624.12
 24.67     617.00
 24.77     607.36
 24.87     643.00
 24.97     614.37
 25.07     592.06
 25.17     596.90
 25.27     519.83
 25.37     568.00
 25.47     579.00
 25.57     543.00
 25.67     569.77
 25.77     532.00
 25.87     574.35
 25.97     525.00
 26.07     522.41
 26.17     551.00
 26.27     501.05
 26.37     561.00
 26.47     525.04
 26.57     563.40
 26.67     517.70
 26.77     545.00
 26.87     573.00
 26.97     561.03
 27.07     583.80
 27.17     571.00
 27.27     566.00
 27.37     556.91
 27.47     573.00
 27.57     547.00
 27.67     571.00
 27.77     559.07
 27.87     634.17
 27.97     664.51
 28.07     723.00
 28.17     803.43
 28.27     915.13
 28.37     907.00
 28.47     866.00
 28.57     760.54
 28.67     665.00
 28.77     735.00
 28.87     815.97
 28.97     782.00
 29.07     880.00
 29.17     730.14
 29.27     652.00
 29.37     629.00
 29.47     620.00
 29.57     546.06
 29.67     598.00
 29.77     559.33
 29.87     578.11
 29.97     603.00
 30.07     567.00
 30.17     551.00
 30.27     544.00
 30.37     532.30
 30.47     531.00
 30.57     593.00
 30.67     545.00
 30.77     555.00
 30.87     609.00
 30.97     660.00
 31.07     629.00
 31.17     546.49
 31.27     565.00
 31.37     520.84
 31.47     526.66
 31.57     561.00
 31.67     557.00
 31.77     517.00
 31.87     529.00
 31.97     492.00
 32.07     537.00
 32.17     527.52
 32.27     535.00
 32.37     563.00
 32.47     511.59
 32.57     572.00
 32.67     547.00
 32.77     548.00
 32.87     502.25
 32.97     534.00
 33.07     531.00
 33.17     559.00
 33.27     527.00
 33.37     568.00
 33.47     546.35
 33.57     574.00
 33.67     585.00
 33.77     722.00
 33.87     779.50
 33.97     915.34
 34.07     944.00
 34.17    1055.00
 34.27     927.00
 34.37     792.50
 34.47     668.00
 34.57     641.00
 34.67     557.42
 34.77     555.00
 34.87     550.31
 34.97     572.00
 35.07     531.00
 35.17     557.78
 35.27     519.00
 35.37     487.00
 35.47     498.86
 35.57     540.70
 35.67     502.00
 35.77     473.00
 35.87     515.00
 35.97     447.00
 36.07     545.76
 36.17     489.00
 36.27     519.00
 36.37     477.00
 36.47     545.37
 36.57     473.75
 36.67     474.00
 36.77     494.00
 36.87     533.57
 36.97     464.00
 37.07     506.00
 37.17     511.00
 37.27     527.11
 37.37     549.00
 37.47     495.10
 37.57     493.00
 37.67     519.59
 37.77     512.00
 37.87     534.00
 37.97     543.00
 38.07     521.68
 38.17     506.00
 38.27     471.00
 38.37     525.00
 38.47     522.00
 38.57     493.00
 38.67     499.01
 38.77     517.00
 38.87     504.42
 38.97     460.56
 39.07     517.00
 39.17     481.00
 39.27     488.95
 39.37     483.00
 39.47     539.00
 39.57     519.66
 39.67     507.00
 39.77     436.00
 39.87     521.00
 39.97     466.00
 40.07     478.00
 40.17     493.00
 40.27     461.00
 40.37     471.72
 40.47     487.00
 40.57     495.00
 40.67     509.00
 40.77     517.71
 40.87     477.02
 40.97     489.00
 41.07     464.00
 41.17     488.00
 41.27     478.00
 41.37     485.00
 41.47     499.00
 41.57     529.35
 41.67     467.00
 41.77     491.00
 41.87     525.00
 41.97     541.09
 42.07     476.00
 42.17     514.00
 42.27     531.00
 42.37     529.63
 42.47     541.00
 42.57     555.00
 42.67     591.00
 42.77     625.00
 42.87     594.00
 42.97     577.82
 43.07     509.00
 43.17     535.00
 43.27     476.35
 43.37     474.00
 43.47     501.00
 43.57     475.00
 43.67     476.11
 43.77     503.19
 43.87     497.00
 43.97     507.27
 44.07     473.39
 44.17     493.00
 44.27     510.21
 44.37     506.00
 44.47     495.00
 44.57     523.00
 44.67     512.84
 44.77     530.23
 44.87     475.63
 44.97     489.00
 45.07     479.95
 45.17     529.00
 45.27     505.00
 45.37     500.92
 45.47     452.80
 45.57     497.00
 45.67     487.89
 45.77     522.46
 45.87     495.00
 45.97     529.09
 46.07     484.00
 46.17     495.00
 46.27     470.00
 46.37     502.00
 46.47     474.44
 46.57     425.00
 46.67     491.00
 46.77     533.00
 46.87     503.00
 46.97     515.24
 47.07     461.00
 47.17     533.00
 47.27     517.00
 47.37     499.44
 47.47     509.00
 47.57     526.44
 47.67     548.69
 47.77     590.00
 47.87     611.00
 47.97     590.00
 48.07     531.92
 48.17     553.97
 48.27     553.00
 48.37     587.30
 48.47     569.00
 48.57     509.00
 48.67     485.00
 48.77     515.98
 48.87     541.00
 48.97     557.64
 49.07     514.00
 49.17     554.33
 49.27     580.00
 49.37     594.84
 49.47     635.65
 49.57     645.00
 49.67     726.45
 49.77     900.00
 49.87    1239.00
 49.97    1536.95
 50.07    1810.00
 50.17    2175.52
 50.27    2398.00
 50.37    2316.00
 50.47    2041.00
 50.57    1682.00
 50.67    1373.00
 50.77    1050.00
 50.87     799.00
 50.97     751.00
 51.07     717.77
 51.17     608.02
 51.27     645.28
 51.37     629.00
 51.47     590.89
 51.57     567.00
 51.67     583.00
 51.77     522.33
 51.87     550.88
 51.97     517.04
 52.07     516.23
 52.17     527.08
 52.27     540.00
 52.37     549.00
 52.47     545.00
 52.57     511.31
 52.67     541.04
 52.77     589.01
 52.87     617.00
 52.97     592.68
 53.07     650.28
 53.17     836.00
 53.27     915.00
 53.37     976.74
 53.47    1074.10
 53.57    1172.00
 53.67    1126.00
 53.77    1108.00
 53.87    1045.00
 53.97     898.00
 54.07     757.76
 54.17     669.00
 54.27     648.00
 54.37     556.00
 54.47     554.00
 54.57     566.00
 54.67     572.00
 54.77     498.93
 54.87     579.21
 54.97     558.00
 55.07     539.00
 55.17     545.00
 55.27     550.00
 55.37     648.00
 55.47     577.00
 55.57     561.00
 55.67     556.00
 55.77     585.00
 55.87     593.00
 55.97     589.00
 56.07     650.00
 56.17     678.00
 56.27     855.47
 56.37    1010.98
 56.47    1209.34
 56.57    1480.00
 56.67    1902.66
 56.77    2103.00
 56.87    2375.00
 56.97    2497.00
 57.07    2406.19
 57.17    2339.00
 57.27    1976.00
 57.37    1612.12
 57.47    1320.00
 57.57    1094.00
 57.67     960.00
 57.77     841.01
 57.87     763.00
 57.97     740.66
 58.07     670.00
 58.17     685.00
 58.27     723.88
 58.37     772.00
 58.47     801.81
 58.57     919.70
 58.67     925.00
 58.77    1002.00
 58.87    1088.00
 58.97    1196.62
 59.07    1185.54
 59.17    1399.00
 59.27    1403.00
 59.37    1273.14
 59.47    1298.00
 59.57    1178.18
 59.67    1251.00
 59.77    1157.00
 59.87    1237.00
 59.97    1241.00
 60.07    1329.82
 60.17    1414.67
 60.27    1453.00
 60.37    1450.00
 60.47    1479.00
 60.57    1305.41
 60.67    1263.00
 60.77    1109.40
 60.87     935.00
 60.97     835.00
 61.07     690.12
 61.17     689.58
 61.27     703.00
 61.37     666.00
 61.47     679.00
 61.57     747.71
 61.67     769.00
 61.77     900.00
 61.87     880.00
 61.97    1102.00
 62.07    1189.00
 62.17    1268.00
 62.27    1315.00
 62.37    1378.96
 62.47    1248.00
 62.57    1109.77
 62.67    1041.53
 62.77     854.00
 62.87     784.25
 62.97     719.00
 63.07     681.00
 63.17     654.00
 63.27     588.00
 63.37     601.00
 63.47     534.17
 63.57     557.84
 63.67     572.00
 63.77     607.00
 63.87     614.00
 63.97     614.00
 64.07     697.57
 64.17     713.00
 64.27     740.49
 64.37     826.00
 64.47     924.88
 64.57     987.55
 64.67     955.00
 64.77    1063.18
 64.87    1035.54
 64.97     921.50
 65.07     954.00
 65.17     779.00
 65.27     817.68
 65.37     682.00
 65.47     694.64
 65.57     650.00
 65.67     590.00
 65.77     612.43
 65.87     562.00
 65.97     571.38
 66.07     573.00
 66.17     557.00
 66.27     590.00
 66.37     601.00
 66.47     566.00
 66.57     543.00
 66.67     534.00
 66.77     551.00
 66.87     627.66
 66.97     560.00
 67.07     636.46
 67.17     709.14
 67.27     690.05
 67.37     786.00
 67.47     929.73
 67.57    1065.00
 67.67    1310.00
 67.77    1556.00
 67.87    1773.00
 67.97    1936.38
 68.07    2213.00
 68.17    2345.00
 68.27    2368.23
 68.37    2248.14
 68.47    2087.00
 68.57    1744.10
 68.67    1660.00
 68.77    1379.00
 68.87    1110.29
 68.97     970.00
 69.07     796.00
 69.17     739.00
 69.27     692.00
 69.37     628.00
 69.47     680.00
 69.57     596.00
 69.67     629.00
 69.77     617.00
 69.87     616.56
 69.97     547.07
 70.07     531.11
 70.17     563.40
 70.27     570.00
 70.37     542.00
 70.47     600.50
 70.57     601.00
 70.67     562.00
 70.77     573.00
 70.87     574.00
 70.97     578.00
 71.07     660.00
 71.17     711.11
 71.27     805.32
 71.37     818.08
 71.47     897.28
 71.57    1057.00
 71.67    1210.00
 71.77    1398.00
 71.87    1566.00
 71.97    1778.00
 72.07    1799.14
 72.17    1888.00
 72.27    1844.00
 72.37    1745.54
 72.47    1591.00
 72.57    1490.07
 72.67    1274.00
 72.77    1080.00
 72.87    1007.74
 72.97     862.00
 73.07     808.00
 73.17     704.00
 73.27     709.00
 73.37     633.32
 73.47     679.00
 73.57     633.00
 73.67     600.39
 73.77     625.00
 73.87     588.00
 73.97     577.70
 74.07     537.00
 74.17     553.00
 74.27     552.00
 74.37     578.16
 74.47     595.00
 74.57     562.39
 74.67     629.00
 74.77     651.00
 74.87     662.00
 74.97     529.21
 75.07     543.11
 75.17     556.90
 75.27     602.00
 75.37     512.65
 75.47     577.00
 75.57     598.00
 75.67     554.00
 75.77     598.84
 75.87     542.86
 75.97     595.00
 76.07     613.12
 76.17     611.51
 76.27     631.06
 76.37     613.00
 76.47     681.23
 76.57     694.00
 76.67     738.51
 76.77     673.00
 76.87     679.00
 76.97     637.00
 77.07     679.00
 77.17     630.00
 77.27     584.10
 77.37     580.91
 77.47     554.00
 77.57     573.58
 77.67     517.00
 77.77     523.00
 77.87     542.62
 77.97     526.44
 78.07     502.00
 78.17     489.00
 78.27     521.00
 78.37     537.00
 78.47     540.00
 78.57     513.00
 78.67     462.00
 78.77     526.00
 78.87     490.00
 78.97     544.00
 79.07     502.00
 79.17     495.00
 79.27     474.75
 79.37     506.44
 79.47     496.00
 79.57     553.38
 79.67     496.00
 79.77     538.00
 79.87     512.58
 79.97     534.76
 80.07     514.50
 80.17     558.00
 80.27     552.00
 80.37     564.00
 80.47     561.00
 80.57     583.38
 80.67     628.00
 80.77     651.00
 80.87     656.00
 80.97     653.00
 81.07     662.00
 81.17     638.00
 81.27     707.04
 81.37     760.01
 81.47     739.00
 81.57     707.02
 81.67     762.00
 81.77     620.00
 81.87     727.00
 81.97     689.00
 82.07     671.00
 82.17     673.00
 82.27     701.00
 82.37     634.63
 82.47     580.00
 82.57     618.71
 82.67     612.00
 82.77     591.71
 82.87     561.43
 82.97     534.00
 83.07     590.00
 83.17     519.00
 83.27     495.00
 83.37     552.00
 83.47     493.00
 83.57     501.93
 83.67     546.59
 83.77     509.36
 83.87     599.24
 83.97     542.49
 84.07     548.38
 84.17     549.00
 84.27     551.00
 84.37     590.96
 84.47     567.00
 84.57     570.00
 84.67     568.00
 84.77     544.22
 84.87     575.56
 84.97     562.00
 85.07     475.00
 85.17     552.22
 85.27     500.00
 85.37     497.73
 85.47     532.00
 85.57     513.02
 85.67     521.00
 85.77     544.00
 85.87     499.89
 85.97     496.00
 86.07     502.00
 86.17     496.54
 86.27     521.00
 86.37     488.00
 86.47     549.00
 86.57     555.00
 86.67     555.00
 86.77     588.64
 86.87     577.00
 86.97     543.00
 87.07     618.00
 87.17     603.00
 87.27     636.92
 87.37     599.00
 87.47     626.32
 87.57     608.00
 87.67     620.00
 87.77     678.00
 87.87     591.00
 87.97     605.00
 88.07     686.00
 88.17     581.00
 88.27     576.00
 88.37     568.00
 88.47     598.67
 88.57     540.81
 88.67     584.00
 88.77     609.00
 88.87     561.00
 88.97     555.00
 89.07     600.00
 89.17     590.00
 89.27     617.04
 89.37     579.00
 89.47     603.00
 89.57     589.00
 89.67     563.00
 89.77     570.00
 89.87     541.00
 89.97     571.00
 90.07     535.00
 90.17     557.77
 90.27     514.23
 90.37     561.69
 90.47     492.89
 90.57     549.00
 90.67     523.00
 90.77     442.00
 90.87     551.03
 90.97     552.00
 91.07     507.05
 91.17     493.00
 91.27     497.03
 91.37     519.93
 91.47     537.70
 91.57     480.00
 91.67     507.39
 91.77     561.00
 91.87     511.96
 91.97     546.11
 92.07     545.00
 92.17     550.00
 92.27     565.88
 92.37     559.98
 92.47     564.00
 92.57     559.00
 92.67     611.00
 92.77     615.00
 92.87     616.00
 92.97     700.00
 93.07     650.00
 93.17     667.94
 93.27     736.00
 93.37     716.24
 93.47     704.31
 93.57     730.00
 93.67     815.43
 93.77     774.31
 93.87     835.50
 93.97     809.20
 94.07     848.00
 94.17     845.00
 94.27     871.53
 94.37     864.68
 94.47     877.00
 94.57     826.42
 94.67     868.00
 94.77     913.00
 94.87     821.21
 94.97     899.00
 95.07     911.00
 95.17     805.13
 95.27     838.00
 95.37     826.00
 95.47     828.00
 95.57     722.07
 95.67     786.61
 95.77     720.00
 95.87     758.32
 95.97     721.00
 96.07     678.22
 96.17     655.00
 96.27     683.65
 96.37     707.00
 96.47     720.00
 96.57     740.00
 96.67     820.00
 96.77     883.10
 96.87     908.00
 96.97    1021.75
 97.07    1037.00
 97.17    1074.00
 97.27    1178.00
 97.37    1308.00
 97.47    1340.84
 97.57    1328.94
 97.67    1372.91
 97.77    1359.00
 97.87    1464.30
 97.97    1433.00
 98.07    1339.35
 98.17    1258.94
 98.27    1285.91
 98.37    1183.00
 98.47    1053.35
 98.57    1045.00
 98.67     924.24
 98.77     913.00
 98.87     879.00
 98.97     828.00
 99.07     767.00
 99.17     896.15
 99.27     891.00
 99.37     863.00
 99.47     890.29
 99.57    1018.67
 99.67    1077.19
 99.77    1139.00
 99.87    1149.00
 99.97    1327.47
100.07    1360.54
100.17    1553.15
100.27    1560.00
100.37    1646.00
100.47    1802.22
100.57    1904.00
100.67    1944.00
100.77    1904.73
100.87    2006.00
100.97    2027.00
101.07    1995.70
101.17    1934.00
101.27    1907.00
101.37    1893.00
101.47    1753.00
101.57    1658.00
101.67    1678.74
101.77    1514.00
101.87    1421.00
101.97    1426.00
102.07    1289.00
102.17    1246.00
102.27    1283.40
102.37    1204.00
102.47    1211.00
102.57    1124.00
102.67    1064.00
102.77    1071.00
102.87    1086.27
102.97     992.56
103.07     993.00
103.17    1016.00
103.27     922.03
103.37     931.00
103.47     828.00
103.57     854.47
103.67     790.00
103.77     699.42
103.87     747.00
103.97     649.70
104.07     712.00
104.17     672.00
104.27     591.95
104.37     573.29
104.47     576.79
104.57     586.00
104.67     540.00
104.77     538.98
104.87     569.00
104.97     549.00
105.07     576.00
105.17     513.04
105.27     496.00
105.37     501.00
105.47     574.00
105.57     478.37
105.67     531.80
105.77     526.00
105.87     512.79
105.97     573.00
106.07     507.23
106.17     571.81
106.27     598.00
106.37     591.65
106.47     588.00
106.57     602.00
106.67     573.00
106.77     601.00
106.87     634.00
106.97     611.00
107.07     645.00
107.17     625.00
107.27     657.00
107.37     709.00
107.47     663.00
107.57     658.00
107.67     668.00
107.77     632.00
107.87     719.00
107.97     712.29
108.07     712.63
108.17     692.00
108.27     699.00
108.37     717.00
108.47     640.00
108.57     736.38
108.67     666.00
108.77     698.00
108.87     734.00
108.97     730.93
109.07     697.10
109.17     719.35
109.27     719.00
109.37     665.00
109.47     690.00
109.57     685.11
109.67     666.82
109.77     670.85
109.87     639.00
109.97     622.00
110.07     645.00
110.17     611.09
110.27     592.00
110.37     583.00
110.47     604.00
110.57     567.00
110.67     580.00
110.77     531.00
110.87     595.00
110.97     515.94
111.07     535.00
111.17     568.48
111.27     571.86
111.37     495.87
111.47     531.23
111.57     566.00
111.67     508.63
111.77     497.42
111.87     533.22
111.97     545.00
112.07     578.13
112.17     571.98
112.27     559.20
112.37     525.00
112.47     551.00
112.57     549.00
112.67     551.00
112.77     597.00
112.87     572.00
112.97     577.44
113.07     574.00
113.17     593.74
113.27     575.00
113.37     606.00
113.47     609.00
113.57     597.00
113.67     681.92
113.77     659.00
113.87     725.00
113.97     689.00
114.07     731.00
114.17     811.00
114.27     851.00
114.37     858.00
114.47     981.00
114.57    1018.00
114.67    1209.93
114.77    1313.00
114.87    1433.00
114.97    1641.52
115.07    1785.00
115.17    2022.00
115.27    2306.00
115.37    2514.87
115.47    2783.00
115.57    3011.00
115.67    3278.32
115.77    3798.79
115.87    4119.00
115.97    4436.00
116.07    4945.02
116.17    5065.56
116.27    5585.00
116.37    5837.00
116.47    6218.00
116.57    6548.07
116.67    6669.00
116.77    6815.00
116.87    6888.00
116.97    6963.78
117.07    6910.00
117.17    6818.54
117.27    6483.00
117.37    6206.00
117.47    5934.89
117.57    5590.00
117.67    5284.00
117.77    4965.65
117.87    4524.00
117.97    4168.61
118.07    3939.00
118.17    3498.27
118.27    3226.50
118.37    2970.00
118.47    2667.00
118.57    2190.00
118.67    2096.00
118.77    1816.00
118.87    1644.00
118.97    1459.05
119.07    1269.00
119.17    1277.39
119.27    1076.00
119.37    1054.00
119.47     965.00
119.57     868.00
119.67     881.00
119.77     839.00
119.87     812.00
119.97     669.54
120.07     676.00
120.17     625.00
120.27     684.00
120.37     646.00
120.47     645.00
120.57     613.24
120.67     604.00
120.77     636.22
120.87     608.00
120.97     580.00
121.07     613.09
121.17     566.00
121.27     557.00
121.37     595.00
121.47     614.10
121.57     542.00
121.67     582.00
121.77     611.00
121.87     587.91
121.97     550.00
122.07     580.00
122.17     558.00
122.27     616.09
122.37     606.00
122.47     589.74
122.57     609.00
122.67     567.44
122.77     594.10
122.87     603.00
122.97     619.00
123.07     652.19
123.17     645.52
123.27     624.00
123.37     595.15
123.47     687.00
123.57     658.45
123.67     653.00
123.77     620.00
123.87     641.26
123.97     595.47
124.07     599.00
124.17     597.00
124.27     607.00
124.37     590.33
124.47     572.38
124.57     628.42
124.67     609.00
124.77     601.59
124.87     580.00
124.97     569.00
