  9.97     638.00
 10.07     578.00
 10.17     589.30
 10.27     608.00
 10.37     624.00
 10.47     539.58
 10.57     607.57
 10.67     623.98
 10.77     626.80
 10.87     554.37
 10.97     571.00
 11.07     571.00
 11.17     527.00
 11.27     630.00
 11.37     570.00
 11.47     559.00
 11.57     614.00
 11.67     624.00
 11.77     652.00
 11.87     597.38
 11.97     674.00
 12.07     714.00
 12.17     694.00
 12.27     683.00
 12.37     662.00
 12.47     662.00
 12.57     626.53
 12.67     591.00
 12.77     537.00
 12.87     570.00
 12.97     548.48
 13.07     566.45
 13.17     584.00
 13.27     574.00
 13.37     597.67
 13.47     581.00
 13.57     614.61
 13.67     567.00
 13.77     550.00
 13.87     579.00
 13.97     611.67
 14.07     562.00
 14.17     595.00
 14.27     565.00
 14.37     638.00
 14.47     567.00
 14.57     565.00
 14.67     551.00
 14.77     537.20
 14.87     582.00
 14.97     565.11
 15.07     585.00
 15.17     554.90
 15.27     576.32
 15.37     586.00
 15.47     537.11
 15.57     603.78
 15.67     563.00
 15.77     575.00
 15.87     555.22
 15.97     568.71
 16.07     564.78
 16.17     573.14
 16.27     600.00
 16.37     606.65
 16.47     535.28
 16.57     606.00
 16.67     592.64
 16.77     493.00
 16.87     543.00
 16.97     567.00
 17.07     604.46
 17.17     542.74
 17.27     595.00
 17.37     536.00
 17.47     549.00
 17.57     598.45
 17.67     574.00
 17.77     598.34
 17.87     554.00
 17.97     581.00
 18.07     547.00
 18.17     562.00
 18.27     551.00
 18.37     507.00
 18.47     564.00
 18.57     600.43
 18.67     527.69
 18.77     557.00
 18.87     579.42
 18.97     559.21
 19.07     603.39
 19.17     574.00
 19.27     557.54
 19.37     552.00
 19.47     571.00
 19.57     593.12
 19.67     530.31
 19.77     534.71
 19.87     577.62
 19.97     576.00
 20.07     579.00
 20.17     603.00
 20.27     549.00
 20.37     545.00
 20.47     556.36
 20.57     578.74
 20.67     551.00
 20.77     531.30
 20.87     563.88
 20.97     556.00
 21.07     530.00
 21.17     542.00
 21.27     549.00
 21.37     535.43
 21.47     558.41
 21.57     554.00
 21.67     572.00
 21.77     577.29
 21.87     515.44
 21.97     530.37
 22.07     565.00
 22.17     558.00
 22.27     577.00
 22.37     509.00
 22.47     513.52
 22.57     581.12
 22.67     529.60
 22.77     568.00
 22.87     550.00
 22.97     548.00
 23.07     538.00
 23.17     550.00
 23.27     567.00
 23.37     541.35
 23.47     551.00
 23.57     551.28
 23.67     537.00
 23.77     559.00
 23.87     556.00
 23.97     557.00
 24.07     535.00
 24.17     560.00
 24.27     616.00
 24.37     593.49
 24.47     620.81
 24.57     626.55
 24.67     612.00
 24.77     620.00
 24.87     660.53
 24.97     625.00
 25.07     549.50
 25.17     570.00
 25.27     571.92
 25.37     586.00
 25.47     527.00
 25.57     537.00
 25.67     551.38
 25.77     563.18
 25.87     559.00
 25.97     503.02
 26.07     585.00
 26.17     509.39
 26.27     606.00
 26.37     544.00
 26.47     572.00
 26.57     551.00
 26.67     525.00
 26.77     599.00
 26.87     536.00
 26.97     546.00
 27.07     517.00
 27.17     538.07
 27.27     559.44
 27.37     512.67
 27.47     571.00
 27.57     542.00
 27.67     587.89
 27.77     540.04
 27.87     605.00
 27.97     680.00
 28.07     762.00
 28.17     894.09
 28.27     925.00
 28.37     897.00
 28.47     811.00
 28.57     715.73
 28.67     715.49
 28.77     713.67
 28.87     778.00
 28.97     811.00
 29.07     765.17
 29.17     701.64
 29.27     616.00
 29.37     587.00
 29.47     584.16
 29.57     626.00
 29.67     649.00
 29.77     530.53
 29.87     631.00
 29.97     565.00
 30.07     531.00
 30.17     562.00
 30.27     612.00
 30.37     507.00
 30.47     546.00
 30.57     522.00
 30.67     603.00
 30.77     625.00
 30.87     652.00
 30.97     603.00
 31.07     581.45
 31.17     572.00
 31.27     575.72
 31.37     518.63
 31.47     574.33
 31.57     503.75
 31.67     519.95
 31.77     565.87
 31.87     529.00
 31.97     502.92
 32.07     506.99
 32.17     505.00
 32.27     485.58
 32.37     544.00
 32.47     578.00
 32.57     516.75
 32.67     531.00
 32.77     524.92
 32.87     560.00
 32.97     511.00
 33.07     554.00
 33.17     512.33
 33.27     593.00
 33.37     548.00
 33.47     531.11
 33.57     611.00
 33.67     647.00
 33.77     764.00
 33.87     877.00
 33.97    1024.00
 34.07    1063.03
 34.17     957.20
 34.27     930.00
 34.37     727.85
 34.47     622.39
 34.57     549.83
 34.67     565.00
 34.77     558.00
 34.87     527.00
 34.97     496.00
 35.07     557.00
 35.17     523.00
 35.27     500.52
 35.37     499.00
 35.47     499.74
 35.57     525.00
 35.67     535.72
 35.77     516.00
 35.87     549.00
 35.97     517.00
 36.07     513.00
 36.17     482.00
 36.27     525.00
 36.37     522.24
 36.47     476.52
 36.57     483.00
 36.67     531.00
 36.77     525.00
 36.87     514.15
 36.97     542.01
 37.07     528.33
 37.17     539.00
 37.27     524.00
 37.37     553.83
 37.47     505.00
 37.57     492.67
 37.67     511.00
 37.77     543.00
 37.87     466.00
 37.97     537.93
 38.07     494.00
 38.17     551.95
 38.27     534.13
 38.37     502.00
 38.47     496.00
 38.57     469.67
 38.67     490.00
 38.77     480.34
 38.87     477.00
 38.97     494.00
 39.07     467.35
 39.17     510.00
 39.27     530.37
 39.37     538.37
 39.47     525.99
 39.57     513.00
 39.67     492.00
 39.77     540.41
 39.87     473.24
 39.97     464.01
 40.07     431.00
 40.17     537.00
 40.27     516.34
 40.37     465.00
 40.47     520.99
 40.57     514.00
 40.67     513.00
 40.77     532.97
 40.87     534.74
 40.97     485.00
 41.07     505.00
 41.17     521.00
 41.27     516.00
 41.37     527.13
 41.47     537.12
 41.57     529.00
 41.67     492.00
 41.77     538.00
 41.87     521.00
 41.97     515.00
 42.07     491.00
 42.17     509.00
 42.27     512.00
 42.37     573.00
 42.47     501.00
 42.57     603.00
 42.67     582.00
 42.77     576.00
 42.87     606.19
 42.97     551.00
 43.07     546.35
 43.17     501.00
 43.27     535.32
 43.37     503.24
 43.47     430.00
 43.57     496.00
 43.67     528.00
 43.77     502.95
 43.87     470.26
 43.97     519.00
 44.07     525.11
 44.17     475.36
 44.27     517.00
 44.37     550.00
 44.47     532.45
 44.57     462.14
 44.67     494.00
 44.77     507.04
 44.87     488.54
 44.97     533.43
 45.07     510.00
 45.17     501.59
 45.27     495.90
 45.37     513.05
 45.47     526.00
 45.57     470.00
 45.67     480.24
 45.77     462.00
 45.87     535.75
 45.97     501.00
 46.07     511.00
 46.17     480.00
 46.27     513.00
 46.37     473.68
 46.47     475.00
 46.57     498.00
 46.67     516.00
 46.77     520.00
 46.87     468.00
 46.97     529.00
 47.07     503.00
 47.17     554.76
 47.27     503.00
 47.37     524.00
 47.47     519.00
 47.57     551.00
 47.67     564.00
 47.77     578.00
 47.87     603.00
 47.97     555.27
 48.07     583.00
 48.17     515.00
 48.27     546.00
 48.37     543.00
 48.47     538.72
 48.57     522.26
 48.67     504.30
 48.77     558.00
 48.87     509.09
 48.97     541.00
 49.07     539.00
 49.17     616.00
 49.27     593.00
 49.37     665.00
 49.47     719.32
 49.57     803.00
 49.67     886.00
 49.77    1172.00
 49.87    1444.00
 49.97    1810.00
 50.07    2240.05
 50.17    2499.00
 50.27    2508.03
 50.37    2357.00
 50.47    1912.00
 50.57    1386.22
 50.67    1039.00
 50.77     830.00
 50.87     692.00
 50.97     631.07
 51.07     631.00
 51.17     569.18
 51.27     603.00
 51.37     609.88
 51.47     613.00
 51.57     585.00
 51.67     566.43
 51.77     566.00
 51.87     529.00
 51.97     509.00
 52.07     583.00
 52.17     542.00
 52.27     608.00
 52.37     564.00
 52.47     604.00
 52.57     521.00
 52.67     601.00
 52.77     635.00
 52.87     592.15
 52.97     724.00
 53.07     804.00
 53.17     886.04
 53.27     995.00
 53.37    1102.00
 53.47    1198.00
 53.57    1168.00
 53.67    1175.90
 53.77    1018.00
 53.87     837.00
 53.97     752.00
 54.07     650.00
 54.17     630.00
 54.27     556.00
 54.37     525.47
 54.47     586.98
 54.57     566.00
 54.67     528.10
 54.77     534.00
 54.87     525.00
 54.97     583.45
 55.07     613.00
 55.17     581.00
 55.27     553.00
 55.37     589.40
 55.47     556.00
 55.57     562.00
 55.67     603.70
 55.77     544.04
 55.87     597.00
 55.97     600.59
 56.07     664.00
 56.17     792.36
 56.27     957.07
 56.37    1101.25
 56.47    1439.80
 56.57    1727.89
 56.67    2196.00
 56.77    2405.00
 56.87    2696.45
 56.97    2598.00
 57.07    2409.00
 57.17    2046.00
 57.27    1674.00
 57.37    1282.00
 57.47    1018.96
 57.57     869.00
 57.67     790.00
 57.77     730.00
 57.87     688.02
 57.97     662.00
 58.07     694.00
 58.17     749.43
 58.27     764.00
 58.37     865.00
 58.47     965.00
 58.57    1093.71
 58.67    1328.13
 58.77    1437.00
 58.87    1552.00
 58.97    1637.56
 59.07    1517.45
 59.17    1585.00
 59.27    1522.00
 59.37    1373.00
 59.47    1211.06
 59.57    1168.00
 59.67    1143.00
 59.77    1141.00
 59.87    1186.46
 59.97    1290.00
 60.07    1417.00
 60.17    1522.00
 60.27    1577.98
 60.37    1542.00
 60.47    1453.00
 60.57    1218.00
 60.67    1062.00
 60.77     874.36
 60.87     755.86
 60.97     686.00
 61.07     647.63
 61.17     624.00
 61.27     637.99
 61.37     673.00
 61.47     708.00
 61.57     798.02
 61.67     864.58
 61.77    1003.00
 61.87    1061.00
 61.97    1215.00
 62.07    1388.00
 62.17    1391.00
 62.27    1490.93
 62.37    1351.11
 62.47    1226.16
 62.57     963.00
 62.67     918.86
 62.77     765.00
 62.87     687.00
 62.97     644.22
 63.07     616.00
 63.17     541.00
 63.27     582.73
 63.37     525.80
 63.47     583.00
 63.57     567.00
 63.67     634.00
 63.77     591.70
 63.87     602.62
 63.97     631.00
 64.07     724.00
 64.17     752.00
 64.27     800.00
 64.37     917.13
 64.47     989.00
 64.57     977.00
 64.67    1047.01
 64.77    1053.00
 64.87    1012.01
 64.97     863.35
 65.07     889.00
 65.17     774.00
 65.27     758.58
 65.37     677.00
 65.47     694.40
 65.57     618.00
 65.67     606.30
 65.77     544.65
 65.87     545.28
 65.97     526.24
 66.07     558.00
 66.17     541.00
 66.27     558.00
 66.37     528.00
 66.47     575.31
 66.57     522.44
 66.67     525.48
 66.77     577.34
 66.87     613.00
 66.97     606.00
 67.07     618.00
 67.17     660.00
 67.27     726.62
 67.37     927.08
 67.47    1010.67
 67.57    1190.00
 67.67    1509.00
 67.77    1724.11
 67.87    1999.00
 67.97    2297.00
 68.07    2448.00
 68.17    2397.43
 68.27    2261.00
 68.37    2058.97
 68.47    1802.82
 68.57    1551.00
 68.67    1224.86
 68.77    1003.00
 68.87     901.00
 68.97     749.21
 69.07     666.17
 69.17     643.00
 69.27     651.00
 69.37     549.04
 69.47     584.00
 69.57     546.41
 69.67     587.13
 69.77     588.03
 69.87     657.00
 69.97     578.00
 70.07     576.00
 70.17     588.50
 70.27     598.00
 70.37     593.02
 70.47     576.00
 70.57     581.00
 70.67     598.75
 70.77     597.00
 70.87     574.00
 70.97     612.21
 71.07     615.00
 71.17     692.00
 71.27     823.27
 71.37     923.88
 71.47    1033.00
 71.57    1222.94
 71.67    1454.24
 71.77    1636.00
 71.87    1762.00
 71.97    1872.00
 72.07    1938.62
 72.17    1983.00
 72.27    1745.00
 72.37    1695.04
 72.47    1463.37
 72.57    1334.91
 72.67    1181.76
 72.77    1118.00
 72.87     965.06
 72.97     901.00
 73.07     880.00
 73.17     789.00
 73.27     739.00
 73.37     717.20
 73.47     655.00
 73.57     621.00
 73.67     598.00
 73.77     549.00
 73.87     578.00
 73.97     578.24
 74.07     622.85
 74.17     551.25
 74.27     601.00
 74.37     663.00
 74.47     623.00
 74.57     592.00
 74.67     659.00
 74.77     549.79
 74.87     627.00
 74.97     627.00
 75.07     567.58
 75.17     517.47
 75.27     508.36
 75.37     528.02
 75.47     551.03
 75.57     545.00
 75.67     552.00
 75.77     561.00
 75.87     609.00
 75.97     634.08
 76.07     588.67
 76.17     638.30
 76.27     666.00
 76.37     684.00
 76.47     694.00
 76.57     700.00
 76.67     727.00
 76.77     676.00
 76.87     639.18
 76.97     631.00
 77.07     638.00
 77.17     611.00
 77.27     583.00
 77.37     562.00
 77.47     546.00
 77.57     528.21
 77.67     574.00
 77.77     513.38
 77.87     520.00
 77.97     520.00
 78.07     517.69
 78.17     569.57
 78.27     550.00
 78.37     516.00
 78.47     551.24
 78.57     510.00
 78.67     516.50
 78.77     563.00
 78.87     509.22
 78.97     514.00
 79.07     548.62
 79.17     526.00
 79.27     530.00
 79.37     548.40
 79.47     528.14
 79.57     538.00
 79.67     543.00
 79.77     549.45
 79.87     536.64
 79.97     578.31
 80.07     566.00
 80.17     571.06
 80.27     606.17
 80.37     612.00
 80.47     589.00
 80.57     635.59
 80.67     640.00
 80.77     634.00
 80.87     661.00
 80.97     705.00
 81.07     692.00
 81.17     725.00
 81.27     775.00
 81.37     760.00
 81.47     740.01
 81.57     781.00
 81.67     757.00
 81.77     737.36
 81.87     661.17
 81.97     710.33
 82.07     711.00
 82.17     658.00
 82.27     613.00
 82.37     623.00
 82.47     646.37
 82.57     604.00
 82.67     562.00
 82.77     568.00
 82.87     602.00
 82.97     586.00
 83.07     575.96
 83.17     591.48
 83.27     511.00
 83.37     514.00
 83.47     576.34
 83.57     569.00
 83.67     529.00
 83.77     543.23
 83.87     619.00
 83.97     535.36
 84.07     566.00
 84.17     611.83
 84.27     569.78
 84.37     556.00
 84.47     508.00
 84.57     541.00
 84.67     536.00
 84.77     543.00
 84.87     541.83
 84.97     486.00
 85.07     533.00
 85.17     539.21
 85.27     513.00
 85.37     539.00
 85.47     544.00
 85.57     528.00
 85.67     500.00
 85.77     565.60
 85.87     515.00
 85.97     549.00
 86.07     532.00
 86.17     518.00
 86.27     556.93
 86.37     563.92
 86.47     552.80
 86.57     526.00
 86.67     586.00
 86.77     545.00
 86.87     584.83
 86.97     581.55
 87.07     571.41
 87.17     626.00
 87.27     600.00
 87.37     629.94
 87.47     618.00
 87.57     657.00
 87.67     702.00
 87.77     611.74
 87.87     638.00
 87.97     612.00
 88.07     642.00
 88.17     539.87
 88.27     622.00
 88.37     570.00
 88.47     573.00
 88.57     590.31
 88.67     580.81
 88.77     565.00
 88.87     583.34
 88.97     571.00
 89.07     615.00
 89.17     583.00
 89.27     606.00
 89.37     586.36
 89.47     624.54
 89.57     555.00
 89.67     600.00
 89.77     554.00
 89.87     564.00
 89.97     571.00
 90.07     591.00
 90.17     540.00
 90.27     575.03
 90.37     471.00
 90.47     513.00
 90.57     482.00
 90.67     518.00
 90.77     478.00
 90.87     523.00
 90.97     519.00
 91.07     512.00
 91.17     541.00
 91.27     532.00
 91.37     551.61
 91.47     521.09
 91.57     544.00
 91.67     524.00
 91.77     510.44
 91.87     539.00
 91.97     528.66
 92.07     529.00
 92.17     548.00
 92.27     593.00
 92.37     608.00
 92.47     590.06
 92.57     626.00
 92.67     691.00
 92.77     678.87
 92.87     708.00
 92.97     773.00
 93.07     727.00
 93.17     803.00
 93.27     760.50
 93.37     763.00
 93.47     794.74
 93.57     817.54
 93.67     820.00
 93.77     835.00
 93.87     882.00
 93.97     880.86
 94.07     861.00
 94.17     824.54
 94.27     864.93
 94.37     871.11
 94.47     864.00
 94.57     878.00
 94.67     935.75
 94.77     904.41
 94.87     918.00
 94.97     907.00
 95.07     903.00
 95.17     829.88
 95.27     863.20
 95.37     847.00
 95.47     755.00
 95.57     732.00
 95.67     719.00
 95.77     713.00
 95.87     721.76
 95.97     694.00
 96.07     740.00
 96.17     741.00
 96.27     753.00
 96.37     708.24
 96.47     818.00
 96.57     817.00
 96.67     913.00
 96.77     983.00
 96.87    1047.00
 96.97    1172.10
 97.07    1269.00
 97.17    1287.34
 97.27    1321.54
 97.37    1436.86
 97.47    1469.05
 97.57    1401.22
 97.67    1372.32
 97.77    1429.00
 97.87    1389.00
 97.97    1369.00
 98.07    1249.00
 98.17    1238.00
 98.27    1066.27
 98.37     995.25
 98.47     974.00
 98.57     857.01
 98.67     853.94
 98.77     793.00
 98.87     792.00
 98.97     764.00
 99.07     818.00
 99.17     883.03
 99.27     892.00
 99.37     930.00
 99.47     959.00
 99.57    1082.62
 99.67    1174.00
 99.77    1241.00
 99.87    1358.66
 99.97    1553.00
100.07    1721.00
100.17    1737.00
100.27    1831.00
100.37    1912.00
100.47    2017.00
100.57    2030.00
100.67    2196.00
100.77    2079.00
100.87    2052.50
100.97    2099.38
101.07    1907.54
101.17    1957.24
101.27    1822.00
101.37    1739.00
101.47    1652.02
101.57    1522.00
101.67    1435.00
101.77    1340.37
101.87    1362.44
101.97    1207.00
102.07    1167.00
102.17    1124.00
102.27    1172.00
102.37    1101.46
102.47    1045.13
102.57    1085.00
102.67    1069.00
102.77    1065.38
102.87     942.53
102.97     931.09
103.07     927.63
103.17     879.00
103.27     833.00
103.37     812.70
103.47     726.00
103.57     728.00
103.67     718.68
103.77     678.00
103.87     627.01
103.97     641.00
104.07     548.10
104.17     584.00
104.27     563.00
104.37     605.00
104.47     511.00
104.57     542.46
104.67     567.00
104.77     559.41
104.87     530.00
104.97     515.20
105.07     545.00
105.17     560.00
105.27     562.89
105.37     530.00
105.47     531.00
105.57     553.00
105.67     590.00
105.77     540.00
105.87     513.00
105.97     568.00
106.07     549.00
106.17     595.00
106.27     609.00
106.37     645.00
106.47     584.00
106.57     597.00
106.67     632.10
106.77     655.00
106.87     632.00
106.97     655.73
107.07     711.41
107.17     693.00
107.27     670.92
107.37     600.00
107.47     682.00
107.57     630.00
107.67     682.00
107.77     688.00
107.87     674.00
107.97     674.00
108.07     687.00
108.17     682.00
108.27     647.53
108.37     668.26
108.47     694.00
108.57     719.00
108.67     716.00
108.77     736.00
108.87     684.00
108.97     693.00
109.07     669.54
109.17     688.00
109.27     654.13
109.37     632.00
109.47     606.94
109.57     588.00
109.67     580.79
109.77     586.60
109.87     607.00
109.97     568.81
110.07     602.49
110.17     587.00
110.27     555.62
110.37     537.12
110.47     523.38
110.57     574.00
110.67     546.00
110.77     505.00
110.87     531.84
110.97     576.00
111.07     592.00
111.17     531.00
111.27     525.97
111.37     545.64
111.47     547.10
111.57     577.84
111.67     541.00
111.77     590.00
111.87     572.00
111.97     563.00
112.07     557.00
112.17     532.00
112.27     548.00
112.37     570.71
112.47     615.00
112.57     605.00
112.67     613.00
112.77     677.00
112.87     646.00
112.97     678.00
113.07     682.00
113.17     671.27
113.27     714.00
113.37     747.56
113.47     844.00
113.57     919.00
113.67     831.51
113.77     909.00
113.87    1000.00
113.97    1002.19
114.07    1032.00
114.17    1099.00
114.27    1253.59
114.37    1282.00
114.47    1314.00
114.57    1419.00
114.67    1606.00
114.77    1834.00
114.87    1901.00
114.97    2174.00
115.07    2358.00
115.17    2642.90
115.27    2850.00
115.37    3010.00
115.47    3367.00
115.57    3834.00
115.67    4069.00
115.77    4512.00
115.87    5027.02
115.97    5249.96
116.07    5547.00
116.17    5932.74
116.27    6253.00
116.37    6678.00
116.47    6825.00
116.57    6796.17
116.67    7006.00
116.77    6840.92
116.87    6967.00
116.97    6709.00
117.07    6306.00
117.17    6115.00
117.27    5674.00
117.37    5330.00
117.47    5034.00
117.57    4703.24
117.67    4192.84
117.77    4051.00
117.87    3474.22
117.97    3362.00
118.07    2923.00
118.17    2528.00
118.27    2255.00
118.37    1962.00
118.47    1777.78
118.57    1563.00
118.67    1444.99
118.77    1220.00
118.87    1139.15
118.97     986.00
119.07     905.00
119.17     869.08
119.27     817.00
119.37     749.00
119.47     717.00
119.57     678.00
119.67     691.57
119.77     667.15
119.87     585.00
119.97     619.00
120.07     589.00
120.17     567.00
120.27     594.00
120.37     579.00
120.47     607.15
120.57     531.00
120.67     579.00
120.77     602.86
120.87     573.00
120.97     581.00
121.07     600.00
121.17     580.64
121.27     584.00
121.37     583.00
121.47     590.66
121.57     584.00
121.67     563.21
121.77     581.00
121.87     595.00
121.97     593.00
122.07     647.42
122.17     630.00
122.27     651.86
122.37     592.99
122.47     597.11
122.57     660.84
122.67     641.85
122.77     609.75
122.87     667.58
122.97     640.14
123.07     614.63
123.17     672.00
123.27     642.77
123.37     682.67
123.47     668.00
123.57     670.56
123.67     648.92
123.77     609.00
123.87     647.00
123.97     627.00
124.07     601.00
124.17     651.48
124.27     612.32
124.37     638.88
124.47     577.07
124.57     633.00
124.67     608.19
124.77     565.20
124.87     641.00
124.97     594.00
