  9.97     607.00
 10.07     661.00
 10.17     536.68
 10.27     616.00
 10.37     573.31
 10.47     555.21
 10.57     543.00
 10.67     602.00
 10.77     616.00
 10.87     577.38
 10.97     556.00
 11.07     585.00
 11.17     557.00
 11.27     616.29
 11.37     566.00
 11.47     557.46
 11.57     593.00
 11.67     588.73
 11.77     586.00
 11.87     601.00
 11.97     705.00
 12.07     719.00
 12.17     671.32
 12.27     718.29
 12.37     675.00
 12.47     666.00
 12.57     629.10
 12.67     631.64
 12.77     534.27
 12.87     621.00
 12.97     560.56
 13.07     535.67
 13.17     564.00
 13.27     562.00
 13.37     527.00
 13.47     547.00
 13.57     566.28
 13.67     580.94
 13.77     570.00
 13.87     567.00
 13.97     596.00
 14.07     579.00
 14.17     589.68
 14.27     545.00
 14.37     530.00
 14.47     575.00
 14.57     534.00
 14.67     547.00
 14.77     589.37
 14.87     512.00
 14.97     560.00
 15.07     578.00
 15.17     583.00
 15.27     589.00
 15.37     569.00
 15.47     578.00
 15.57     525.00
 15.67     586.00
 15.77     533.00
 15.87     526.11
 15.97     539.16
 16.07     533.00
 16.17     529.00
 16.27     551.00
 16.37     579.52
 16.47     521.64
 16.57     581.00
 16.67     535.00
 16.77     517.55
 16.87     542.00
 16.97     563.00
 17.07     573.12
 17.17     496.00
 17.27     532.00
 17.37     537.00
 17.47     605.00
 17.57     558.81
 17.67     557.00
 17.77     519.33
 17.87     566.39
 17.97     554.00
 18.07     547.00
 18.17     576.00
 18.27     583.00
 18.37     574.00
 18.47     568.00
 18.57     576.00
 18.67     553.38
 18.77     550.07
 18.87     533.00
 18.97     545.00
 19.07     554.00
 19.17     578.00
 19.27     555.43
 19.37     557.60
 19.47     539.00
 19.57     544.00
 19.67     567.06
 19.77     540.29
 19.87     530.40
 19.97     533.00
 20.07     552.00
 20.17     533.00
 20.27     579.00
 20.37     517.44
 20.47     582.00
 20.57     588.56
 20.67     532.00
 20.77     526.00
 20.87     531.00
 20.97     583.00
 21.07     519.86
 21.17     537.56
 21.27     602.00
 21.37     569.75
 21.47     537.00
 21.57     588.62
 21.67     538.00
 21.77     512.92
 21.87     529.00
 21.97     505.00
 22.07     612.00
 22.17     575.00
 22.27     542.00
 22.37     597.93
 22.47     529.00
 22.57     544.00
 22.67     591.00
 22.77     522.00
 22.87     539.12
 22.97     505.40
 23.07     518.19
 23.17     539.00
 23.27     551.00
 23.37     564.50
 23.47     597.00
 23.57     565.00
 23.67     508.94
 23.77     557.00
 23.87     530.63
 23.97     574.50
 24.07     576.00
 24.17     528.45
 24.27     569.00
 24.37     524.00
 24.47     673.00
 24.57     578.00
 24.67     609.26
 24.77     676.95
 24.87     594.90
 24.97     608.00
 25.07     587.34
 25.17     545.00
 25.27     572.00
 25.37     537.00
 25.47     526.00
 25.57     530.14
 25.67     551.00
 25.77     500.19
 25.87     600.00
 25.97     553.00
 26.07     584.00
 26.17     542.00
 26.27     554.00
 26.37     524.24
 26.47     513.69
 26.57     521.00
 26.67     552.75
 26.77     542.51
 26.87     590.00
 26.97     514.00
 27.07     519.00
 27.17     522.00
 27.27     548.00
 27.37     519.95
 27.47     526.47
 27.57     572.41
 27.67     544.00
 27.77     568.79
 27.87     634.00
 27.97     666.20
 28.07     730.00
 28.17     874.00
 28.27    1003.88
 28.37     869.30
 28.47     885.00
 28.57     673.04
 28.67     683.00
 28.77     749.00
 28.87     800.00
 28.97     886.98
 29.07     750.00
 29.17     686.00
 29.27     668.00
 29.37     605.45
 29.47     599.00
 29.57     540.96
 29.67     608.41
 29.77     596.00
 29.87     585.00
 29.97     591.41
 30.07     587.00
 30.17     511.25
 30.27     568.85
 30.37     521.07
 30.47     571.00
 30.57     499.00
 30.67     603.00
 30.77     604.00
 30.87     622.00
 30.97     569.25
 31.07     630.67
 31.17     589.00
 31.27     523.15
 31.37     536.00
 31.47     515.00
 31.57     579.45
 31.67     500.43
 31.77     535.98
 31.87     571.00
 31.97     497.12
 32.07     509.00
 32.17     553.59
 32.27     530.54
 32.37     514.20
 32.47     528.93
 32.57     595.00
 32.67     495.39
 32.77     505.99
 32.87     510.27
 32.97     552.79
 33.07     543.56
 33.17     500.79
 33.27     524.00
 33.37     569.53
 33.47     545.00
 33.57     646.00
 33.67     661.88
 33.77     756.00
 33.87     849.00
 33.97    1059.00
 34.07    1070.83
 34.17    1024.00
 34.27     906.23
 34.37     739.00
 34.47     695.58
 34.57     562.63
 34.67     535.00
 34.77     531.76
 34.87     521.53
 34.97     500.00
 35.07     555.00
 35.17     566.72
 35.27     581.00
 35.37     561.46
 35.47     539.00
 35.57     546.00
 35.67     535.16
 35.77     519.00
 35.87     505.00
 35.97     534.00
 36.07     549.67
 36.17     524.00
 36.27     532.00
 36.37     486.00
 36.47     533.83
 36.57     535.57
 36.67     506.39
 36.77     529.00
 36.87     515.00
 36.97     525.00
 37.07     523.00
 37.17     525.82
 37.27     488.80
 37.37     529.00
 37.47     509.32
 37.57     512.15
 37.67     543.00
 37.77     545.00
 37.87     526.00
 37.97     520.00
 38.07     513.00
 38.17     545.00
 38.27     514.00
 38.37     491.00
 38.47     528.00
 38.57     547.50
 38.67     523.00
 38.77     488.00
 38.87     492.00
 38.97     488.08
 39.07     514.00
 39.17     513.66
 39.27     497.89
 39.37     514.00
 39.47     483.59
 39.57     476.02
 39.67     498.22
 39.77     484.00
 39.87     474.00
 39.97     534.00
 40.07     491.72
 40.17     520.00
 40.27     490.00
 40.37     514.00
 40.47     548.52
 40.57     540.00
 40.67     474.29
 40.77     443.00
 40.87     485.00
 40.97     503.00
 41.07     478.00
 41.17     521.75
 41.27     504.00
 41.37     496.00
 41.47     511.00
 41.57     494.00
 41.67     472.90
 41.77     483.03
 41.87     523.00
 41.97     510.00
 42.07     504.00
 42.17     564.62
 42.27     543.00
 42.37     533.00
 42.47     559.00
 42.57     578.00
 42.67     559.00
 42.77     644.00
 42.87     565.77
 42.97     593.80
 43.07     567.00
 43.17     505.00
 43.27     566.03
 43.37     529.00
 43.47     483.10
 43.57     480.00
 43.67     486.00
 43.77     467.46
 43.87     548.03
 43.97     548.00
 44.07     534.65
 44.17     568.00
 44.27     522.72
 44.37     485.31
 44.47     507.00
 44.57     479.00
 44.67     486.48
 44.77     512.56
 44.87     523.43
 44.97     517.00
 45.07     518.66
 45.17     498.00
 45.27     474.15
 45.37     500.01
 45.47     502.50
 45.57     513.00
 45.67     515.44
 45.77     516.00
 45.87     486.45
 45.97     526.00
 46.07     519.00
 46.17     496.00
 46.27     505.00
 46.37     502.00
 46.47     482.00
 46.57     499.00
 46.67     538.47
 46.77     451.00
 46.87     488.37
 46.97     471.84
 47.07     494.42
 47.17     538.03
 47.27     522.38
 47.37     543.00
 47.47     530.36
 47.57     553.00
 47.67     605.00
 47.77     576.24
 47.87     561.00
 47.97     592.00
 48.07     630.00
 48.17     559.00
 48.27     578.00
 48.37     545.00
 48.47     573.00
 48.57     556.00
 48.67     551.34
 48.77     532.00
 48.87     554.00
 48.97     546.00
 49.07     592.37
 49.17     629.07
 49.27     650.44
 49.37     655.00
 49.47     724.06
 49.57     765.22
 49.67     930.00
 49.77    1120.00
 49.87    1542.00
 49.97    1847.00
 50.07    2185.02
 50.17    2525.00
 50.27    2515.24
 50.37    2290.00
 50.47    1824.00
 50.57    1482.00
 50.67    1105.26
 50.77     836.00
 50.87     790.55
 50.97     664.00
 51.07     607.67
 51.17     653.13
 51.27     620.88
 51.37     564.55
 51.47     555.00
 51.57     558.00
 51.67     507.69
 51.77     560.00
 51.87     542.00
 51.97     559.00
 52.07     583.00
 52.17     535.00
 52.27     528.79
 52.37     564.00
 52.47     519.00
 52.57     592.00
 52.67     575.00
 52.77     560.00
 52.87     637.55
 52.97     734.00
 53.07     859.00
 53.17     902.04
 53.27     981.11
 53.37    1145.36
 53.47    1156.00
 53.57    1166.00
 53.67    1048.00
 53.77     951.00
 53.87     890.00
 53.97     787.00
 54.07     651.00
 54.17     670.00
 54.27     629.00
 54.37     608.00
 54.47     621.00
 54.57     592.00
 54.67     599.00
 54.77     596.00
 54.87     535.07
 54.97     532.00
 55.07     558.00
 55.17     572.00
 55.27     552.05
 55.37     540.29
 55.47     542.00
 55.57     568.89
 55.67     573.00
 55.77     569.00
 55.87     615.00
 55.97     641.00
 56.07     656.00
 56.17     746.00
 56.27     838.00
 56.37    1103.11
 56.47    1516.24
 56.57    1792.92
 56.67    2121.00
 56.77    2516.00
 56.87    2698.62
 56.97    2592.82
 57.07    2376.00
 57.17    2055.00
 57.27    1599.65
 57.37    1306.02
 57.47    1091.00
 57.57     875.00
 57.67     754.00
 57.77     693.00
 57.87     705.56
 57.97     693.00
 58.07     723.00
 58.17     733.54
 58.27     814.72
 58.37     841.00
 58.47     941.00
 58.57    1094.00
 58.67    1251.00
 58.77    1358.00
 58.87    1430.03
 58.97    1578.00
 59.07    1584.00
 59.17    1563.00
 59.27    1409.12
 59.37    1378.00
 59.47    1193.00
 59.57    1249.00
 59.67    1076.43
 59.77    1072.47
 59.87    1287.00
 59.97    1373.00
 60.07    1485.00
 60.17    1561.00
 60.27    1576.00
 60.37    1542.00
 60.47    1401.24
 60.57    1277.00
 60.67    1071.00
 60.77     926.00
 60.87     736.00
 60.97     744.00
 61.07     654.00
 61.17     650.00
 61.27     587.00
 61.37     692.95
 61.47     710.00
 61.57     798.00
 61.67     883.58
 61.77     937.23
 61.87    1118.00
 61.97    1263.75
 62.07    1330.27
 62.17    1443.00
 62.27    1390.00
 62.37    1342.00
 62.47    1177.72
 62.57    1061.00
 62.67     923.00
 62.77     815.31
 62.87     703.69
 62.97     646.00
 63.07     655.58
 63.17     596.00
 63.27     589.00
 63.37     552.00
 63.47     548.39
 63.57     570.00
 63.67     537.85
 63.77     609.00
 63.87     626.10
 63.97     694.63
 64.07     683.68
 64.17     729.51
 64.27     844.66
 64.37     944.00
 64.47    1002.00
 64.57     994.00
 64.67     986.00
 64.77    1028.10
 64.87     994.00
 64.97     909.00
 65.07     876.94
 65.17     788.00
 65.27     714.56
 65.37     674.00
 65.47     638.00
 65.57     581.76
 65.67     643.00
 65.77     570.00
 65.87     625.00
 65.97     591.00
 66.07     605.21
 66.17     587.70
 66.27     552.92
 66.37     574.00
 66.47     537.73
 66.57     545.00
 66.67     549.93
 66.77     560.00
 66.87     623.04
 66.97     688.00
 67.07     637.00
 67.17     689.00
 67.27     711.00
 67.37     890.97
 67.47    1077.00
 67.57    1279.00
 67.67    1549.40
 67.77    1769.00
 67.87    1963.00
 67.97    2297.00
 68.07    2393.00
 68.17    2363.94
 68.27    2266.00
 68.37    1982.33
 68.47    1842.62
 68.57    1496.60
 68.67    1275.00
 68.77    1034.74
 68.87     896.00
 68.97     769.00
 69.07     710.00
 69.17     672.00
 69.27     668.00
 69.37     549.67
 69.47     575.00
 69.57     594.76
 69.67     590.17
 69.77     601.54
 69.87     574.00
 69.97     634.00
 70.07     545.85
 70.17     577.00
 70.27     578.00
 70.37     558.84
 70.47     558.00
 70.57     580.95
 70.67     586.05
 70.77     618.14
 70.87     585.71
 70.97     599.00
 71.07     654.00
 71.17     788.44
 71.27     736.00
 71.37     940.45
 71.47    1123.98
 71.57    1225.25
 71.67    1463.00
 71.77    1647.00
 71.87    1872.00
 71.97    1953.67
 72.07    2001.00
 72.17    1845.13
 72.27    1787.00
 72.37    1544.22
 72.47    1444.04
 72.57    1251.00
 72.67    1146.00
 72.77    1051.73
 72.87     922.00
 72.97     921.00
 73.07     857.00
 73.17     758.00
 73.27     708.00
 73.37     675.00
 73.47     623.00
 73.57     578.00
 73.67     650.76
 73.77     623.96
 73.87     599.00
 73.97     575.00
 74.07     590.00
 74.17     560.94
 74.27     529.97
 74.37     593.07
 74.47     608.00
 74.57     664.00
 74.67     632.00
 74.77     695.00
 74.87     633.00
 74.97     645.00
 75.07     598.00
 75.17     580.00
 75.27     630.00
 75.37     538.00
 75.47     538.00
 75.57     540.52
 75.67     565.00
 75.77     578.00
 75.87     571.00
 75.97     559.72
 76.07     584.00
 76.17     614.00
 76.27     658.85
 76.37     705.52
 76.47     692.00
 76.57     688.84
 76.67     688.00
 76.77     679.00
 76.87     673.04
 76.97     655.00
 77.07     631.00
 77.17     591.00
 77.27     579.81
 77.37     601.00
 77.47     544.32
 77.57     540.00
 77.67     517.00
 77.77     529.00
 77.87     533.73
 77.97     518.96
 78.07     524.00
 78.17     474.00
 78.27     527.00
 78.37     501.72
 78.47     502.00
 78.57     542.00
 78.67     544.33
 78.77     550.91
 78.87     476.00
 78.97     527.34
 79.07     491.64
 79.17     535.00
 79.27     512.00
 79.37     532.00
 79.47     550.00
 79.57     567.00
 79.67     528.00
 79.77     552.00
 79.87     492.00
 79.97     558.21
 80.07     530.00
 80.17     531.00
 80.27     578.18
 80.37     593.00
 80.47     596.00
 80.57     606.00
 80.67     623.94
 80.77     689.44
 80.87     689.00
 80.97     674.00
 81.07     722.00
 81.17     743.00
 81.27     755.44
 81.37     743.00
 81.47     726.00
 81.57     764.58
 81.67     732.00
 81.77     765.15
 81.87     702.24
 81.97     698.00
 82.07     629.76
 82.17     644.00
 82.27     589.89
 82.37     629.00
 82.47     596.28
 82.57     638.00
 82.67     599.00
 82.77     580.07
 82.87     551.00
 82.97     530.88
 83.07     581.00
 83.17     555.00
 83.27     520.00
 83.37     536.00
 83.47     536.00
 83.57     539.00
 83.67     579.00
 83.77     538.00
 83.87     560.00
 83.97     600.00
 84.07     558.00
 84.17     554.00
 84.27     531.76
 84.37     603.33
 84.47     601.32
 84.57     513.48
 84.67     576.00
 84.77     516.00
 84.87     529.07
 84.97     535.00
 85.07     507.00
 85.17     525.00
 85.27     516.00
 85.37     548.00
 85.47     520.00
 85.57     537.00
 85.67     542.00
 85.77     514.00
 85.87     535.00
 85.97     517.96
 86.07     542.00
 86.17     503.00
 86.27     533.00
 86.37     534.00
 86.47     590.17
 86.57     536.00
 86.67     599.00
 86.77     560.59
 86.87     590.00
 86.97     585.07
 87.07     609.73
 87.17     546.00
 87.27     630.00
 87.37     664.15
 87.47     607.00
 87.57     642.00
 87.67     669.00
 87.77     656.74
 87.87     616.00
 87.97     553.70
 88.07     577.42
 88.17     619.00
 88.27     634.00
 88.37     582.00
 88.47     628.00
 88.57     592.00
 88.67     550.00
 88.77     571.00
 88.87     572.00
 88.97     589.00
 89.07     604.53
 89.17     551.40
 89.27     625.00
 89.37     648.00
 89.47     572.00
 89.57     610.00
 89.67     566.44
 89.77     593.00
 89.87     543.00
 89.97     568.25
 90.07     549.01
 90.17     521.00
 90.27     558.94
 90.37     544.00
 90.47     522.00
 90.57     520.93
 90.67     524.00
 90.77     531.00
 90.87     486.77
 90.97     529.00
 91.07     485.00
 91.17     505.00
 91.27     512.00
 91.37     514.00
 91.47     554.00
 91.57     519.00
 91.67     545.85
 91.77     499.51
 91.87     536.00
 91.97     527.00
 92.07     548.09
 92.17     525.12
 92.27     610.30
 92.37     606.00
 92.47     608.57
 92.57     634.01
 92.67     674.00
 92.77     701.15
 92.87     669.96
 92.97     769.00
 93.07     718.00
 93.17     727.15
 93.27     789.51
 93.37     746.00
 93.47     810.27
 93.57     757.25
 93.67     825.00
 93.77     825.00
 93.87     779.70
 93.97     854.00
 94.07     843.00
 94.17     835.00
 94.27     901.00
 94.37     918.00
 94.47     821.00
 94.57     866.12
 94.67     900.11
 94.77     860.04
 94.87     903.00
 94.97     925.37
 95.07     866.79
 95.17     825.41
 95.27     840.00
 95.37     819.00
 95.47     769.00
 95.57     684.32
 95.67     736.00
 95.77     684.23
 95.87     697.00
 95.97     680.44
 96.07     659.73
 96.17     690.00
 96.27     723.08
 96.37     714.00
 96.47     862.00
 96.57     823.90
 96.67     936.07
 96.77    1035.61
 96.87    1095.00
 96.97    1170.51
 97.07    1208.00
 97.17    1288.00
 97.27    1418.44
 97.37    1368.00
 97.47    1484.00
 97.57    1405.00
 97.67    1447.00
 97.77    1369.99
 97.87    1294.00
 97.97    1284.00
 98.07    1157.43
 98.17    1178.23
 98.27    1130.00
 98.37    1011.00
 98.47     964.44
 98.57     887.00
 98.67     860.61
 98.77     794.00
 98.87     829.93
 98.97     744.00
 99.07     850.00
 99.17     783.00
 99.27     863.00
 99.37     927.00
 99.47     955.15
 99.57    1129.00
 99.67    1185.15
 99.77    1313.00
 99.87    1404.00
 99.97    1569.00
100.07    1664.00
100.17    1816.00
100.27    1843.00
100.37    1931.34
100.47    2033.00
100.57    2005.00
100.67    2134.00
100.77    2129.45
100.87    2069.00
100.97    2077.00
101.07    1942.00
101.17    1956.00
101.27    1894.00
101.37    1737.22
101.47    1605.00
101.57    1478.00
101.67    1437.00
101.77    1332.00
101.87    1272.00
101.97    1216.00
102.07    1204.00
102.17    1189.00
102.27    1104.00
102.37    1101.00
102.47    1067.00
102.57    1075.00
102.67    1095.87
102.77    1041.00
102.87    1025.40
102.97     966.00
103.07     918.17
103.17     912.00
103.27     853.00
103.37     792.00
103.47     762.10
103.57     766.00
103.67     664.00
103.77     700.00
103.87     661.00
103.97     581.09
104.07     615.00
104.17     619.00
104.27     538.60
104.37     553.00
104.47     548.00
104.57     535.59
104.67     559.00
104.77     535.00
104.87     576.00
104.97     561.19
105.07     526.00
105.17     522.00
105.27     572.78
105.37     530.00
105.47     550.00
105.57     520.08
105.67     536.78
105.77     530.00
105.87     571.00
105.97     576.00
106.07     564.61
106.17     590.62
106.27     569.00
106.37     564.00
106.47     603.00
106.57     601.00
106.67     681.83
106.77     700.50
106.87     666.00
106.97     678.00
107.07     679.00
107.17     672.00
107.27     656.00
107.37     705.94
107.47     659.00
107.57     639.00
107.67     712.00
107.77     657.22
107.87     707.00
107.97     672.18
108.07     645.99
108.17     667.00
108.27     682.00
108.37     690.16
108.47     723.00
108.57     713.00
108.67     696.01
108.77     674.00
108.87     694.20
108.97     658.63
109.07     706.61
109.17     639.00
109.27     634.00
109.37     662.89
109.47     654.00
109.57     585.10
109.67     604.00
109.77     619.73
109.87     586.00
109.97     555.27
110.07     580.00
110.17     541.00
110.27     587.00
110.37     558.00
110.47     549.00
110.57     572.39
110.67     581.00
110.77     559.78
110.87     549.00
110.97     540.00
111.07     501.00
111.17     501.54
111.27     533.49
111.37     515.84
111.47     581.94
111.57     541.00
111.67     559.00
111.77     567.55
111.87     542.43
111.97     567.00
112.07     606.74
112.17     565.75
112.27     551.00
112.37     595.00
112.47     598.70
112.57     594.00
112.67     617.00
112.77     628.00
112.87     678.62
112.97     643.62
113.07     641.00
113.17     704.00
113.27     728.00
113.37     714.22
113.47     773.00
113.57     765.00
113.67     854.00
113.77     922.94
113.87     912.00
113.97     904.40
114.07     977.00
114.17    1093.00
114.27    1130.69
114.37    1268.81
114.47    1269.41
114.57    1356.34
114.67    1543.00
114.77    1710.00
114.87    1940.00
114.97    2168.00
115.07    2328.00
115.17    2518.00
115.27    2889.00
115.37    3146.45
115.47    3506.68
115.57    3904.83
115.67    4028.00
115.77    4565.00
115.87    4823.03
115.97    5253.00
116.07    5764.35
116.17    5834.00
116.27    6317.94
116.37    6657.00
116.47    6777.00
116.57    6949.03
116.67    6924.33
116.77    7013.87
116.87    6803.00
116.97    6797.00
117.07    6538.00
117.17    6138.00
117.27    5583.00
117.37    5269.00
117.47    5004.00
117.57    4731.58
117.67    4170.13
117.77    3980.26
117.87    3636.00
117.97    3237.00
118.07    2871.64
118.17    2567.39
118.27    2262.12
118.37    1993.03
118.47    1786.00
118.57    1580.00
118.67    1380.53
118.77    1230.00
118.87    1141.00
118.97    1002.00
119.07     994.00
119.17     955.00
119.27     881.00
119.37     813.00
119.47     692.00
119.57     701.00
119.67     659.00
119.77     711.21
119.87     600.00
119.97     637.00
120.07     629.04
120.17     575.00
120.27     638.00
120.37     594.78
120.47     577.00
120.57     560.53
120.67     596.00
120.77     608.62
120.87     590.61
120.97     573.00
121.07     591.00
121.17     581.00
121.27     622.43
121.37     576.00
121.47     559.01
121.57     564.00
121.67     578.00
121.77     612.00
121.87     584.00
121.97     635.00
122.07     648.00
122.17     674.00
122.27     618.00
122.37     603.88
122.47     612.00
122.57     636.00
122.67     674.00
122.77     658.00
122.87     719.00
122.97     658.00
123.07     672.00
123.17     656.32
123.27     633.00
123.37     643.00
123.47     622.00
123.57     660.77
123.67     681.00
123.77     676.00
123.87     630.00
123.97     650.00
124.07     598.00
124.17     629.00
124.27     664.07
124.37     649.02
124.47     585.00
124.57     624.00
124.67     588.00
124.77     603.00
124.87     591.00
124.97     568.15
