  9.97     592.00
 10.07     604.41
 10.17     539.75
 10.27     575.00
 10.37     531.10
 10.47     559.76
 10.57     580.00
 10.67     533.59
 10.77     616.00
 10.87     618.17
 10.97     604.00
 11.07     585.00
 11.17     608.76
 11.27     539.92
 11.37     584.73
 11.47     596.00
 11.57     561.18
 11.67     622.00
 11.77     607.83
 11.87     656.00
 11.97     660.00
 12.07     641.00
 12.17     647.00
 12.27     713.00
 12.37     721.54
 12.47     580.00
 12.57     618.00
 12.67     573.00
 12.77     618.69
 12.87     595.76
 12.97     515.00
 13.07     559.72
 13.17     533.05
 13.27     564.00
 13.37     567.36
 13.47     526.00
 13.57     565.00
 13.67     575.88
 13.77     537.10
 13.87     565.51
 13.97     563.00
 14.07     561.00
 14.17     579.00
 14.27     537.00
 14.37     596.16
 14.47     559.00
 14.57     606.19
 14.67     579.00
 14.77     584.00
 14.87     570.00
 14.97     533.00
 15.07     500.00
 15.17     553.00
 15.27     613.17
 15.37     557.00
 15.47     568.01
 15.57     584.00
 15.67     588.58
 15.77     568.00
 15.87     595.66
 15.97     600.41
 16.07     510.00
 16.17     554.19
 16.27     520.26
 16.37     567.00
 16.47     574.00
 16.57     544.00
 16.67     539.00
 16.77     558.00
 16.87     564.45
 16.97     563.00
 17.07     561.38
 17.17     557.30
 17.27     589.00
 17.37     593.00
 17.47     550.50
 17.57     568.45
 17.67     579.00
 17.77     556.00
 17.87     566.00
 17.97     559.00
 18.07     610.00
 18.17     521.76
 18.27     576.00
 18.37     549.30
 18.47     556.17
 18.57     571.43
 18.67     521.00
 18.77     592.00
 18.87     555.00
 18.97     610.71
 19.07     504.00
 19.17     554.00
 19.27     587.00
 19.37     591.03
 19.47     550.00
 19.57     525.00
 19.67     520.00
 19.77     553.00
 19.87     542.57
 19.97     590.31
 20.07     558.00
 20.17     547.01
 20.27     553.00
 20.37     544.00
 20.47     540.00
 20.57     570.00
 20.67     588.00
 20.77     509.20
 20.87     569.57
 20.97     571.00
 21.07     565.00
 21.17     562.71
 21.27     541.00
 21.37     522.55
 21.47     507.67
 21.57     549.84
 21.67     552.00
 21.77     544.08
 21.87     589.00
 21.97     582.56
 22.07     508.02
 22.17     543.00
 22.27     564.42
 22.37     535.16
 22.47     582.92
 22.57     549.00
 22.67     530.00
 22.77     539.61
 22.87     565.00
 22.97     586.00
 23.07     576.00
 23.17     547.00
 23.27     543.00
 23.37     534.00
 23.47     533.00
 23.57     545.00
 23.67     561.00
 23.77     589.00
 23.87     551.00
 23.97     564.00
 24.07     589.00
 24.17     535.59
 24.27     602.00
 24.37     570.78
 24.47     615.00
 24.57     647.36
 24.67     562.00
 24.77     672.00
 24.87     637.00
 24.97     571.00
 25.07     567.94
 25.17     576.00
 25.27     589.00
 25.37     595.00
 25.47     535.00
 25.57     539.00
 25.67     562.00
 25.77     575.00
 25.87     521.00
 25.97     511.00
 26.07     550.00
 26.17     553.00
 26.27     575.00
 26.37     589.92
 26.47     569.00
 26.57     501.00
 26.67     591.92
 26.77     570.00
 26.87     540.00
 26.97     530.00
 27.07     569.00
 27.17     543.00
 27.27     531.28
 27.37     499.32
 27.47     544.00
 27.57     557.00
 27.67     571.83
 27.77     571.00
 27.87     602.00
 27.97     689.00
 28.07     795.00
 28.17     842.00
 28.27     992.00
 28.37     936.66
 28.47     826.80
 28.57     700.00
 28.67     692.00
 28.77     704.12
 28.87     759.00
 28.97     805.00
 29.07     771.00
 29.17     687.00
 29.27     649.00
 29.37     635.00
 29.47     611.00
 29.57     589.00
 29.67     599.00
 29.77     532.46
 29.87     598.82
 29.97     572.84
 30.07     518.61
 30.17     567.60
 30.27     527.00
 30.37     573.52
 30.47     584.42
 30.57     590.37
 30.67     548.00
 30.77     596.00
 30.87     584.78
 30.97     611.63
 31.07     591.00
 31.17     576.92
 31.27     613.18
 31.37     586.00
 31.47     518.09
 31.57     549.00
 31.67     580.30
 31.77     566.00
 31.87     521.00
 31.97     529.00
 32.07     579.00
 32.17     538.00
 32.27     565.00
 32.37     547.30
 32.47     559.00
 32.57     539.31
 32.67     570.00
 32.77     562.68
 32.87     567.00
 32.97     546.00
 33.07     571.00
 33.17     596.00
 33.27     540.00
 33.37     601.00
 33.47     561.00
 33.57     598.00
 33.67     678.00
 33.77     770.00
 33.87     919.00
 33.97    1105.00
 34.07    1040.00
 34.17     990.28
 34.27     823.00
 34.37     784.00
 34.47     663.28
 34.57     591.00
 34.67     537.52
 34.77     534.00
 34.87     499.37
 34.97     536.00
 35.07     529.00
 35.17     567.00
 35.27     476.00
 35.37     498.00
 35.47     520.00
 35.57     496.12
 35.67     527.70
 35.77     549.61
 35.87     512.00
 35.97     504.00
 36.07     557.00
 36.17     509.00
 36.27     482.00
 36.37     525.00
 36.47     551.54
 36.57     495.00
 36.67     531.00
 36.77     560.57
 36.87     565.00
 36.97     543.00
 37.07     516.00
 37.17     481.95
 37.27     497.00
 37.37     494.00
 37.47     516.00
 37.57     523.00
 37.67     501.86
 37.77     529.00
 37.87     569.95
 37.97     536.00
 38.07     558.56
 38.17     496.00
 38.27     533.00
 38.37     470.00
 38.47     477.80
 38.57     487.00
 38.67     478.00
 38.77     491.00
 38.87     499.48
 38.97     520.00
 39.07     477.76
 39.17     504.00
 39.27     519.00
 39.37     553.43
 39.47     495.00
 39.57     521.00
 39.67     483.00
 39.77     528.00
 39.87     503.00
 39.97     476.69
 40.07     498.00
 40.17     503.35
 40.27     497.00
 40.37     441.00
 40.47     497.42
 40.57     489.00
 40.67     503.00
 40.77     519.00
 40.87     485.00
 40.97     467.20
 41.07     505.00
 41.17     472.00
 41.27     515.00
 41.37     526.00
 41.47     518.00
 41.57     487.00
 41.67     510.47
 41.77     536.54
 41.87     479.00
 41.97     489.22
 42.07     475.00
 42.17     531.00
 42.27     521.00
 42.37     524.54
 42.47     555.00
 42.57     619.00
 42.67     637.54
 42.77     576.00
 42.87     576.80
 42.97     571.00
 43.07     558.20
 43.17     495.00
 43.27     568.88
 43.37     499.88
 43.47     496.00
 43.57     514.00
 43.67     554.74
 43.77     510.00
 43.87     529.00
 43.97     510.00
 44.07     475.61
 44.17     485.00
 44.27     534.21
 44.37     536.00
 44.47     473.15
 44.57     503.58
 44.67     503.00
 44.77     498.56
 44.87     550.24
 44.97     464.27
 45.07     472.85
 45.17     533.00
 45.27     513.00
 45.37     486.94
 45.47     551.00
 45.57     498.00
 45.67     505.86
 45.77     483.00
 45.87     505.00
 45.97     492.60
 46.07     523.00
 46.17     482.22
 46.27     488.04
 46.37     509.00
 46.47     527.00
 46.57     484.00
 46.67     540.00
 46.77     518.00
 46.87     509.00
 46.97     500.20
 47.07     514.00
 47.17     512.00
 47.27     548.00
 47.37     494.00
 47.47     521.88
 47.57     564.00
 47.67     595.00
 47.77     650.00
 47.87     599.00
 47.97     608.60
 48.07     601.67
 48.17     596.00
 48.27     550.00
 48.37     512.54
 48.47     562.77
 48.57     535.61
 48.67     518.00
 48.77     540.00
 48.87     508.00
 48.97     590.82
 49.07     604.00
 49.17     575.80
 49.27     631.00
 49.37     666.75
 49.47     654.93
 49.57     815.82
 49.67     888.98
 49.77    1125.19
 49.87    1444.00
 49.97    1851.00
 50.07    2201.90
 50.17    2522.00
 50.27    2525.00
 50.37    2372.00
 50.47    1954.00
 50.57    1450.00
 50.67    1099.00
 50.77     824.30
 50.87     720.00
 50.97     653.00
 51.07     635.00
 51.17     658.00
 51.27     658.00
 51.37     545.00
 51.47     516.80
 51.57     556.04
 51.67     535.00
 51.77     574.00
 51.87     577.23
 51.97     514.83
 52.07     486.70
 52.17     533.00
 52.27     553.00
 52.37     499.78
 52.47     549.00
 52.57     583.11
 52.67     553.00
 52.77     580.00
 52.87     663.00
 52.97     655.15
 53.07     852.00
 53.17     945.00
 53.27     967.72
 53.37    1132.00
 53.47    1140.49
 53.57    1167.00
 53.67    1055.00
 53.77    1015.00
 53.87     881.00
 53.97     712.27
 54.07     674.96
 54.17     641.00
 54.27     550.34
 54.37     575.51
 54.47     584.00
 54.57     570.00
 54.67     552.00
 54.77     567.00
 54.87     580.00
 54.97     566.95
 55.07     584.89
 55.17     531.06
 55.27     516.48
 55.37     577.32
 55.47     625.00
 55.57     581.00
 55.67     542.00
 55.77     530.19
 55.87     576.00
 55.97     605.68
 56.07     660.00
 56.17     714.00
 56.27     889.00
 56.37    1140.00
 56.47    1374.51
 56.57    1772.72
 56.67    2047.00
 56.77    2467.00
 56.87    2659.00
 56.97    2637.39
 57.07    2413.00
 57.17    2036.00
 57.27    1634.00
 57.37    1225.52
 57.47     996.00
 57.57     893.24
 57.67     768.69
 57.77     762.00
 57.87     699.00
 57.97     647.00
 58.07     672.00
 58.17     660.00
 58.27     732.97
 58.37     874.06
 58.47     973.00
 58.57    1066.68
 58.67    1284.00
 58.77    1436.62
 58.87    1435.00
 58.97    1553.00
 59.07    1619.00
 59.17    1649.00
 59.27    1485.00
 59.37    1426.00
 59.47    1295.00
 59.57    1168.34
 59.67    1181.28
 59.77    1073.48
 59.87    1180.00
 59.97    1255.27
 60.07    1441.00
 60.17    1567.00
 60.27    1561.00
 60.37    1615.00
 60.47    1397.00
 60.57    1284.00
 60.67    1092.10
 60.77     875.00
 60.87     765.00
 60.97     655.00
 61.07     650.00
 61.17     634.99
 61.27     626.00
 61.37     638.00
 61.47     665.34
 61.57     749.00
 61.67     846.00
 61.77     942.37
 61.87    1071.00
 61.97    1217.00
 62.07    1354.00
 62.17    1367.45
 62.27    1348.00
 62.37    1246.00
 62.47    1160.00
 62.57    1012.47
 62.67     924.00
 62.77     743.71
 62.87     720.65
 62.97     697.00
 63.07     592.00
 63.17     586.07
 63.27     525.34
 63.37     570.00
 63.47     596.00
 63.57     616.00
 63.67     588.42
 63.77     606.00
 63.87     597.00
 63.97     644.75
 64.07     661.76
 64.17     785.00
 64.27     861.06
 64.37     889.79
 64.47    1020.00
 64.57     984.00
 64.67    1031.00
 64.77    1065.94
 64.87     956.00
 64.97     889.70
 65.07     835.55
 65.17     802.70
 65.27     736.00
 65.37     667.00
 65.47     617.48
 65.57     607.00
 65.67     591.61
 65.77     561.00
 65.87     593.35
 65.97     540.00
 66.07     542.00
 66.17     520.00
 66.27     544.00
 66.37     540.32
 66.47     538.88
 66.57     560.27
 66.67     596.00
 66.77     603.00
 66.87     565.86
 66.97     601.79
 67.07     619.00
 67.17     654.00
 67.27     801.00
 67.37     862.52
 67.47    1054.00
 67.57    1262.00
 67.67    1479.00
 67.77    1750.00
 67.87    2134.00
 67.97    2266.51
 68.07    2414.00
 68.17    2348.00
 68.27    2175.84
 68.37    2120.18
 68.47    1883.00
 68.57    1530.00
 68.67    1236.00
 68.77    1018.00
 68.87     879.00
 68.97     753.00
 69.07     637.57
 69.17     705.00
 69.27     652.00
 69.37     614.59
 69.47     576.00
 69.57     599.00
 69.67     609.21
 69.77     595.00
 69.87     588.00
 69.97     570.00
 70.07     597.00
 70.17     569.00
 70.27     501.00
 70.37     518.66
 70.47     600.00
 70.57     574.55
 70.67     540.79
 70.77     586.00
 70.87     564.66
 70.97     577.00
 71.07     608.00
 71.17     720.26
 71.27     814.00
 71.37     915.00
 71.47    1061.00
 71.57    1291.00
 71.67    1424.87
 71.77    1617.00
 71.87    1811.63
 71.97    1917.49
 72.07    1960.00
 72.17    1915.00
 72.27    1832.00
 72.37    1764.00
 72.47    1551.42
 72.57    1330.00
 72.67    1273.77
 72.77    1082.00
 72.87    1033.54
 72.97     934.03
 73.07     807.00
 73.17     784.30
 73.27     766.92
 73.37     692.00
 73.47     710.56
 73.57     660.29
 73.67     625.00
 73.77     595.00
 73.87     607.00
 73.97     540.36
 74.07     572.00
 74.17     553.83
 74.27     563.00
 74.37     548.04
 74.47     612.09
 74.57     598.07
 74.67     521.93
 74.77     649.00
 74.87     566.38
 74.97     570.46
 75.07     667.00
 75.17     583.00
 75.27     546.55
 75.37     570.00
 75.47     527.45
 75.57     552.00
 75.67     553.00
 75.77     591.00
 75.87     603.00
 75.97     656.06
 76.07     632.00
 76.17     646.00
 76.27     632.00
 76.37     708.00
 76.47     701.00
 76.57     726.00
 76.67     725.00
 76.77     680.00
 76.87     680.00
 76.97     598.00
 77.07     625.05
 77.17     573.00
 77.27     569.00
 77.37     548.55
 77.47     512.61
 77.57     513.00
 77.67     545.08
 77.77     574.00
 77.87     528.00
 77.97     500.06
 78.07     579.71
 78.17     522.00
 78.27     508.00
 78.37     520.00
 78.47     516.00
 78.57     549.79
 78.67     545.00
 78.77     535.00
 78.87     482.00
 78.97     571.56
 79.07     556.24
 79.17     537.30
 79.27     517.00
 79.37     507.02
 79.47     510.17
 79.57     568.00
 79.67     584.20
 79.77     570.00
 79.87     528.73
 79.97     581.33
 80.07     565.80
 80.17     557.74
 80.27     562.00
 80.37     583.65
 80.47     594.00
 80.57     634.00
 80.67     664.50
 80.77     657.00
 80.87     644.00
 80.97     736.54
 81.07     738.21
 81.17     732.00
 81.27     710.00
 81.37     771.01
 81.47     748.61
 81.57     731.91
 81.67     762.00
 81.77     715.00
 81.87     726.00
 81.97     697.00
 82.07     710.56
 82.17     669.00
 82.27     688.00
 82.37     610.00
 82.47     604.00
 82.57     578.74
 82.67     568.00
 82.77     582.00
 82.87     542.00
 82.97     563.00
 83.07     557.13
 83.17     544.23
 83.27     551.00
 83.37     598.90
 83.47     536.74
 83.57     549.00
 83.67     549.00
 83.77     551.00
 83.87     525.00
 83.97     571.00
 84.07     559.00
 84.17     569.82
 84.27     557.00
 84.37     550.00
 84.47     515.83
 84.57     541.30
 84.67     548.00
 84.77     528.00
 84.87     541.30
 84.97     530.71
 85.07     517.00
 85.17     502.00
 85.27     491.73
 85.37     533.00
 85.47     514.57
 85.57     525.21
 85.67     581.00
 85.77     525.29
 85.87     547.00
 85.97     517.00
 86.07     577.47
 86.17     534.00
 86.27     554.00
 86.37     536.00
 86.47     501.49
 86.57     539.07
 86.67     562.00
 86.77     615.20
 86.87     615.00
 86.97     589.38
 87.07     608.00
 87.17     637.92
 87.27     643.00
 87.37     647.97
 87.47     606.00
 87.57     648.00
 87.67     650.00
 87.77     667.00
 87.87     636.00
 87.97     641.22
 88.07     620.07
 88.17     607.00
 88.27     593.00
 88.37     547.00
 88.47     541.67
 88.57     593.00
 88.67     588.00
 88.77     551.00
 88.87     598.00
 88.97     620.00
 89.07     557.44
 89.17     631.00
 89.27     645.00
 89.37     590.89
 89.47     604.00
 89.57     593.00
 89.67     577.00
 89.77     601.00
 89.87     570.00
 89.97     571.00
 90.07     583.00
 90.17     540.17
 90.27     520.00
 90.37     517.00
 90.47     510.87
 90.57     541.32
 90.67     523.68
 90.77     551.00
 90.87     563.05
 90.97     498.00
 91.07     485.00
 91.17     515.00
 91.27     477.00
 91.37     563.00
 91.47     565.00
 91.57     517.00
 91.67     524.96
 91.77     514.00
 91.87     556.47
 91.97     565.00
 92.07     573.00
 92.17     624.44
 92.27     543.15
 92.37     585.00
 92.47     617.92
 92.57     657.42
 92.67     685.00
 92.77     692.00
 92.87     741.00
 92.97     674.14
 93.07     796.00
 93.17     813.00
 93.27     831.95
 93.37     820.00
 93.47     820.00
 93.57     860.37
 93.67     799.00
 93.77     862.00
 93.87     808.63
 93.97     843.04
 94.07     848.00
 94.17     876.00
 94.27     852.00
 94.37     803.84
 94.47     906.00
 94.57     918.00
 94.67     918.00
 94.77     945.00
 94.87     870.00
 94.97     875.82
 95.07     928.00
 95.17     883.00
 95.27     825.00
 95.37     838.73
 95.47     812.00
 95.57     776.00
 95.67     766.00
 95.77     681.12
 95.87     637.00
 95.97     687.00
 96.07     734.18
 96.17     715.00
 96.27     724.00
 96.37     746.00
 96.47     784.00
 96.57     869.00
 96.67     889.00
 96.77     994.82
 96.87     994.05
 96.97    1114.00
 97.07    1151.36
 97.17    1277.00
 97.27    1313.00
 97.37    1376.32
 97.47    1487.07
 97.57    1435.00
 97.67    1396.00
 97.77    1396.01
 97.87    1338.00
 97.97    1271.18
 98.07    1213.59
 98.17    1170.19
 98.27    1102.00
 98.37    1071.45
 98.47     919.00
 98.57     889.00
 98.67     845.00
 98.77     791.00
 98.87     807.00
 98.97     812.51
 99.07     767.00
 99.17     823.93
 99.27     869.00
 99.37     912.78
 99.47     984.63
 99.57    1128.00
 99.67    1104.00
 99.77    1231.70
 99.87    1383.41
 99.97    1499.76
100.07    1650.00
100.17    1700.60
100.27    1822.00
100.37    1916.16
100.47    1896.16
100.57    2124.00
100.67    2036.40
100.77    1986.54
100.87    2006.17
100.97    2014.50
101.07    1883.48
101.17    1936.00
101.27    1771.00
101.37    1719.00
101.47    1603.88
101.57    1501.00
101.67    1375.75
101.77    1449.00
101.87    1295.00
101.97    1306.85
102.07    1169.00
102.17    1121.00
102.27    1163.00
102.37    1110.75
102.47    1102.00
102.57    1028.32
102.67    1012.38
102.77    1084.00
102.87     988.60
102.97     901.00
103.07     927.00
103.17     873.48
103.27     809.94
103.37     797.00
103.47     738.60
103.57     716.10
103.67     721.00
103.77     700.00
103.87     642.00
103.97     647.00
104.07     579.61
104.17     546.01
104.27     587.00
104.37     577.00
104.47     567.00
104.57     554.00
104.67     518.00
104.77     513.00
104.87     526.00
104.97     558.00
105.07     533.00
105.17     568.00
105.27     557.00
105.37     559.00
105.47     547.00
105.57     570.00
105.67     540.00
105.77     505.61
105.87     542.02
105.97     549.00
106.07     595.33
106.17     549.00
106.27     552.00
106.37     627.00
106.47     597.69
106.57     633.00
106.67     605.00
106.77     695.58
106.87     680.55
106.97     646.00
107.07     700.97
107.17     662.70
107.27     645.00
107.37     688.00
107.47     641.00
107.57     734.02
107.67     684.00
107.77     669.15
107.87     679.85
107.97     658.00
108.07     721.90
108.17     656.00
108.27     683.00
108.37     646.08
108.47     675.00
108.57     688.35
108.67     687.00
108.77     686.00
108.87     687.50
108.97     686.00
109.07     673.00
109.17     653.23
109.27     680.09
109.37     645.28
109.47     688.00
109.57     642.29
109.67     577.91
109.77     583.00
109.87     605.33
109.97     556.00
110.07     530.00
110.17     567.00
110.27     556.00
110.37     571.00
110.47     589.00
110.57     578.46
110.67     528.96
110.77     565.00
110.87     550.00
110.97     605.00
111.07     593.00
111.17     517.00
111.27     568.73
111.37     535.00
111.47     514.22
111.57     584.00
111.67     536.00
111.77     531.69
111.87     557.13
111.97     563.84
112.07     549.00
112.17     565.00
112.27     551.00
112.37     555.00
112.47     592.00
112.57     624.30
112.67     601.36
112.77     610.00
112.87     644.00
112.97     692.00
113.07     672.29
113.17     741.00
113.27     707.00
113.37     768.00
113.47     829.00
113.57     841.00
113.67     863.00
113.77     885.00
113.87     943.00
113.97     963.52
114.07    1058.00
114.17    1087.00
114.27    1113.00
114.37    1247.57
114.47    1314.24
114.57    1479.00
114.67    1585.00
114.77    1739.00
114.87    1887.00
114.97    2039.54
115.07    2343.86
115.17    2485.00
115.27    2811.00
115.37    3146.28
115.47    3410.00
115.57    3782.00
115.67    4077.00
115.77    4478.00
115.87    4907.46
115.97    5291.00
116.07    5567.00
116.17    5832.00
116.27    6224.00
116.37    6464.00
116.47    6781.00
116.57    6802.78
116.67    6947.00
116.77    7057.73
116.87    6821.00
116.97    6583.00
117.07    6317.49
117.17    6139.00
117.27    5605.00
117.37    5517.55
117.47    4990.97
117.57    4564.00
117.67    4434.00
117.77    3893.00
117.87    3727.00
117.97    3310.00
118.07    2851.85
118.17    2646.00
118.27    2210.98
118.37    1983.07
118.47    1733.00
118.57    1593.21
118.67    1318.00
118.77    1173.00
118.87    1112.00
118.97    1083.73
119.07     896.00
119.17     863.36
119.27     818.00
119.37     679.00
119.47     730.00
119.57     674.97
119.67     630.00
119.77     658.68
119.87     640.43
119.97     627.00
120.07     569.00
120.17     555.07
120.27     584.98
120.37     559.00
120.47     569.00
120.57     572.91
120.67     616.88
120.77     571.00
120.87     588.00
120.97     598.73
121.07     610.33
121.17     593.27
121.27     569.00
121.37     585.40
121.47     584.00
121.57     611.00
121.67     590.61
121.77     575.72
121.87     589.00
121.97     625.00
122.07     634.00
122.17     625.00
122.27     627.14
122.37     600.00
122.47     616.00
122.57     585.35
122.67     675.46
122.77     651.00
122.87     644.00
122.97     634.00
123.07     659.76
123.17     614.00
123.27     714.00
123.37     649.00
123.47     652.00
123.57     643.47
123.67     629.00
123.77     613.00
123.87     652.20
123.97     604.00
124.07     649.00
124.17     616.00
124.27     623.00
124.37     637.22
124.47     618.62
124.57     613.00
124.67     602.64
124.77     665.00
124.87     544.65
124.97     571.00
