  9.97     791.00
 10.07     701.77
 10.17     729.00
 10.27     699.93
 10.37     752.00
 10.47     756.22
 10.57     718.18
 10.67     757.50
 10.77     700.18
 10.87     714.47
 10.97     749.98
 11.07     717.00
 11.17     675.00
 11.27     733.00
 11.37     691.00
 11.47     765.00
 11.57     727.00
 11.67     703.37
 11.77     695.94
 11.87     712.95
 11.97     810.00
 12.07     862.00
 12.17     893.00
 12.27     860.00
 12.37     833.00
 12.47     795.00
 12.57     757.05
 12.67     707.00
 12.77     735.00
 12.87     681.00
 12.97     670.12
 13.07     680.00
 13.17     701.00
 13.27     662.72
 13.37     725.41
 13.47     713.51
 13.57     710.64
 13.67     626.00
 13.77     614.00
 13.87     722.37
 13.97     714.68
 14.07     688.00
 14.17     700.00
 14.27     622.13
 14.37     672.51
 14.47     676.55
 14.57     720.89
 14.67     672.00
 14.77     653.84
 14.87     710.23
 14.97     652.00
 15.07     639.00
 15.17     659.05
 15.27     618.00
 15.37     713.47
 15.47     629.75
 15.57     598.00
 15.67     688.63
 15.77     656.00
 15.87     662.00
 15.97     617.00
 16.07     658.95
 16.17     703.35
 16.27     622.75
 16.37     682.00
 16.47     621.63
 16.57     615.00
 16.67     706.59
 16.77     612.00
 16.87     618.00
 16.97     651.00
 17.07     648.00
 17.17     586.00
 17.27     676.00
 17.37     635.00
 17.47     604.59
 17.57     677.99
 17.67     665.60
 17.77     621.00
 17.87     605.00
 17.97     630.68
 18.07     642.00
 18.17     639.00
 18.27     626.50
 18.37     671.00
 18.47     646.00
 18.57     650.00
 18.67     639.00
 18.77     659.00
 18.87     642.87
 18.97     597.40
 19.07     610.00
 19.17     698.00
 19.27     679.00
 19.37     600.27
 19.47     622.00
 19.57     614.00
 19.67     678.74
 19.77     651.00
 19.87     596.87
 19.97     644.00
 20.07     667.00
 20.17     643.52
 20.27     614.00
 20.37     635.00
 20.47     603.00
 20.57     577.00
 20.67     611.00
 20.77     638.00
 20.87     631.00
 20.97     647.00
 21.07     647.30
 21.17     675.00
 21.27     618.00
 21.37     673.32
 21.47     643.49
 21.57     679.00
 21.67     663.00
 21.77     619.36
 21.87     638.00
 21.97     623.00
 22.07     649.00
 22.17     601.51
 22.27     663.00
 22.37     606.75
 22.47     629.00
 22.57     599.00
 22.67     599.00
 22.77     626.81
 22.87     656.00
 22.97     621.00
 23.07     630.68
 23.17     595.00
 23.27     605.14
 23.37     583.00
 23.47     627.00
 23.57     603.00
 23.67     622.00
 23.77     639.00
 23.87     644.00
 23.97     619.29
 24.07     672.06
 24.17     589.34
 24.27     617.00
 24.37     629.00
 24.47     642.00
 24.57     625.00
 24.67     663.60
 24.77     669.00
 24.87     694.00
 24.97     683.00
 25.07     684.76
 25.17     751.48
 25.27     627.38
 25.37     667.00
 25.47     635.00
 25.57     682.90
 25.67     653.43
 25.77     674.27
 25.87     647.00
 25.97     654.00
 26.07     648.00
 26.17     647.00
 26.27     635.00
 26.37     610.00
 26.47     631.56
 26.57     700.00
 26.67     645.08
 26.77     692.00
 26.87     618.00
 26.97     736.00
 27.07     666.03
 27.17     729.40
 27.27     677.00
 27.37     749.00
 27.47     803.02
 27.57     757.00
 27.67     820.00
 27.77     846.24
 27.87    1045.00
 27.97    1421.49
 28.07    1984.00
 28.17    3183.00
 28.27    5025.00
 28.37    7154.00
 28.47    7868.42
 28.57    7184.00
 28.67    5568.00
 28.77    3992.00
 28.87    3382.00
 28.97    3681.00
 29.07    4211.00
 29.17    4575.00
 29.27    3925.00
 29.37    3051.15
 29.47    2099.00
 29.57    1462.21
 29.67    1127.00
 29.77    1011.00
 29.87     961.00
 29.97     781.55
 30.07     740.21
 30.17     759.64
 30.27     681.14
 30.37     672.69
 30.47     638.47
 30.57     664.73
 30.67     656.97
 30.77     733.00
 30.87     670.18
 30.97     765.00
 31.07     708.77
 31.17     816.00
 31.27     765.00
 31.37     812.00
 31.47     766.00
 31.57     703.00
 31.67     704.00
 31.77     639.83
 31.87     640.33
 31.97     610.85
 32.07     658.00
 32.17     590.22
 32.27     643.00
 32.37     654.00
 32.47     644.40
 32.57     625.00
 32.67     653.00
 32.77     603.01
 32.87     658.00
 32.97     657.11
 33.07     634.00
 33.17     649.00
 33.27     635.09
 33.37     656.00
 33.47     599.00
 33.57     631.00
 33.67     645.00
 33.77     696.00
 33.87     697.00
 33.97     864.00
 34.07     911.00
 34.17    1144.57
 34.27    1287.00
 34.37    1199.00
 34.47    1214.91
 34.57    1025.03
 34.67     892.00
 34.77     781.00
 34.87     718.00
 34.97     665.74
 35.07     708.00
 35.17     714.00
 35.27     648.00
 35.37     620.00
 35.47     629.00
 35.57     565.46
 35.67     602.00
 35.77     580.00
 35.87     650.00
 35.97     572.58
 36.07     574.00
 36.17     587.00
 36.27     579.66
 36.37     598.00
 36.47     605.00
 36.57     616.00
 36.67     619.00
 36.77     638.10
 36.87     550.00
 36.97     607.47
 37.07     637.60
 37.17     594.99
 37.27     581.81
 37.37     613.00
 37.47     639.20
 37.57     624.00
 37.67     613.00
 37.77     584.00
 37.87     693.00
 37.97     667.00
 38.07     676.68
 38.17     723.93
 38.27     741.00
 38.37     720.00
 38.47     725.00
 38.57     664.00
 38.67     648.00
 38.77     643.00
 38.87     663.00
 38.97     627.00
 39.07     624.00
 39.17     625.12
 39.27     640.73
 39.37     607.74
 39.47     564.00
 39.57     544.00
 39.67     598.00
 39.77     620.00
 39.87     610.00
 39.97     615.00
 40.07     590.00
 40.17     594.64
 40.27     589.68
 40.37     574.00
 40.47     586.00
 40.57     623.00
 40.67     576.51
 40.77     571.00
 40.87     579.00
 40.97     611.80
 41.07     609.00
 41.17     567.49
 41.27     597.00
 41.37     557.00
 41.47     545.00
 41.57     591.00
 41.67     570.00
 41.77     578.00
 41.87     585.37
 41.97     599.77
 42.07     595.00
 42.17     567.00
 42.27     617.81
 42.37     574.00
 42.47     581.00
 42.57     643.00
 42.67     613.00
 42.77     709.44
 42.87     661.00
 42.97     743.92
 43.07     720.00
 43.17     733.11
 43.27     667.00
 43.37     644.04
 43.47     617.74
 43.57     638.00
 43.67     637.00
 43.77     587.00
 43.87     587.58
 43.97     646.00
 44.07     600.00
 44.17     586.45
 44.27     598.00
 44.37     555.00
 44.47     571.00
 44.57     576.00
 44.67     592.00
 44.77     581.57
 44.87     628.00
 44.97     550.14
 45.07     637.07
 45.17     641.00
 45.27     592.88
 45.37     566.00
 45.47     591.00
 45.57     593.00
 45.67     621.00
 45.77     617.00
 45.87     573.00
 45.97     600.72
 46.07     567.00
 46.17     602.00
 46.27     608.50
 46.37     665.00
 46.47     621.00
 46.57     626.00
 46.67     563.63
 46.77     606.41
 46.87     603.00
 46.97     600.00
 47.07     644.58
 47.17     609.95
 47.27     633.00
 47.37     623.00
 47.47     585.00
 47.57     672.00
 47.67     567.00
 47.77     605.00
 47.87     636.00
 47.97     620.00
 48.07     676.00
 48.17     690.00
 48.27     747.61
 48.37     693.00
 48.47     637.00
 48.57     648.80
 48.67     649.43
 48.77     616.00
 48.87     591.00
 48.97     642.00
 49.07     634.00
 49.17     615.00
 49.27     604.27
 49.37     646.00
 49.47     645.00
 49.57     711.86
 49.67     681.00
 49.77     699.00
 49.87     873.36
 49.97     909.00
 50.07    1162.00
 50.17    1537.00
 50.27    1919.00
 50.37    2522.00
 50.47    3027.02
 50.57    3197.98
 50.67    3030.44
 50.77    2653.00
 50.87    2261.00
 50.97    1746.00
 51.07    1281.91
 51.17    1081.00
 51.27     932.00
 51.37     784.35
 51.47     796.43
 51.57     868.00
 51.67     761.53
 51.77     751.84
 51.87     744.00
 51.97     701.73
 52.07     672.06
 52.17     698.00
 52.27     707.00
 52.37     723.00
 52.47     713.00
 52.57     658.98
 52.67     640.00
 52.77     642.00
 52.87     711.00
 52.97     705.00
 53.07     701.00
 53.17     746.00
 53.27     759.00
 53.37     745.00
 53.47     865.00
 53.57     900.97
 53.67    1119.00
 53.77    1143.50
 53.87    1327.43
 53.97    1288.00
 54.07    1314.00
 54.17    1206.71
 54.27    1160.92
 54.37    1062.71
 54.47     897.00
 54.57     831.00
 54.67     737.00
 54.77     685.47
 54.87     686.93
 54.97     705.00
 55.07     666.00
 55.17     630.08
 55.27     634.58
 55.37     707.18
 55.47     705.00
 55.57     633.20
 55.67     704.93
 55.77     709.00
 55.87     672.00
 55.97     736.00
 56.07     672.32
 56.17     717.00
 56.27     740.79
 56.37     794.00
 56.47     858.00
 56.57     942.00
 56.67    1074.98
 56.77    1240.00
 56.87    1547.00
 56.97    1930.00
 57.07    2199.00
 57.17    2535.62
 57.27    2774.00
 57.37    2632.56
 57.47    2610.00
 57.57    2280.58
 57.67    1949.00
 57.77    1600.00
 57.87    1327.00
 57.97    1124.41
 58.07    1059.23
 58.17     892.00
 58.27     884.04
 58.37     789.00
 58.47     752.22
 58.57     793.00
 58.67     870.11
 58.77     900.17
 58.87    1041.76
 58.97     946.00
 59.07    1174.50
 59.17    1219.00
 59.27    1206.00
 59.37    1337.00
 59.47    1371.00
 59.57    1363.00
 59.67    1317.00
 59.77    1348.00
 59.87    1324.00
 59.97    1266.00
 60.07    1300.88
 60.17    1223.75
 60.27    1347.00
 60.37    1452.31
 60.47    1449.00
 60.57    1652.00
 60.67    1661.00
 60.77    1644.00
 60.87    1528.00
 60.97    1479.86
 61.07    1293.00
 61.17    1174.61
 61.27     990.58
 61.37     945.31
 61.47     856.15
 61.57     870.90
 61.67     769.00
 61.77     806.00
 61.87     817.96
 61.97     921.85
 62.07    1030.00
 62.17    1167.00
 62.27    1261.08
 62.37    1546.88
 62.47    1637.00
 62.57    1664.01
 62.67    1768.00
 62.77    1711.00
 62.87    1569.40
 62.97    1472.62
 63.07    1257.38
 63.17    1168.00
 63.27     972.00
 63.37     913.00
 63.47     827.00
 63.57     806.00
 63.67     737.29
 63.77     695.00
 63.87     724.00
 63.97     749.00
 64.07     733.64
 64.17     705.00
 64.27     774.47
 64.37     769.00
 64.47     829.00
 64.57     873.11
 64.67     991.00
 64.77    1092.00
 64.87    1283.00
 64.97    1295.79
 65.07    1460.00
 65.17    1523.38
 65.27    1545.64
 65.37    1464.00
 65.47    1399.62
 65.57    1434.00
 65.67    1195.01
 65.77    1137.00
 65.87     983.00
 65.97     961.00
 66.07     907.00
 66.17     769.00
 66.27     818.55
 66.37     772.60
 66.47     708.00
 66.57     759.29
 66.67     696.00
 66.77     691.00
 66.87     681.00
 66.97     686.00
 67.07     704.65
 67.17     680.00
 67.27     710.00
 67.37     685.00
 67.47     747.00
 67.57     752.33
 67.67     812.00
 67.77     886.00
 67.87    1004.00
 67.97    1204.00
 68.07    1433.00
 68.17    1575.00
 68.27    1813.00
 68.37    2158.24
 68.47    2327.89
 68.57    2553.00
 68.67    2524.00
 68.77    2546.00
 68.87    2277.00
 68.97    2111.76
 69.07    1837.00
 69.17    1601.20
 69.27    1426.00
 69.37    1275.32
 69.47    1153.00
 69.57     931.86
 69.67     932.00
 69.77     881.00
 69.87     703.38
 69.97     766.64
 70.07     726.00
 70.17     678.93
 70.27     665.00
 70.37     683.00
 70.47     771.00
 70.57     732.00
 70.67     667.99
 70.77     682.84
 70.87     718.00
 70.97     706.00
 71.07     671.00
 71.17     730.65
 71.27     723.00
 71.37     701.13
 71.47     757.00
 71.57     775.74
 71.67     816.00
 71.77     908.00
 71.87     970.00
 71.97    1129.00
 72.07    1249.00
 72.17    1416.00
 72.27    1635.67
 72.37    1820.78
 72.47    1844.96
 72.57    1980.00
 72.67    1971.00
 72.77    1971.00
 72.87    1827.24
 72.97    1756.00
 73.07    1526.00
 73.17    1425.12
 73.27    1269.00
 73.37    1082.00
 73.47     945.00
 73.57     827.35
 73.67     771.93
 73.77     732.00
 73.87     729.00
 73.97     676.55
 74.07     699.00
 74.17     710.00
 74.27     655.03
 74.37     728.00
 74.47     617.98
 74.57     663.00
 74.67     653.48
 74.77     671.00
 74.87     641.00
 74.97     700.00
 75.07     693.53
 75.17     735.00
 75.27     716.31
 75.37     741.00
 75.47     694.00
 75.57     698.50
 75.67     677.68
 75.77     715.00
 75.87     674.38
 75.97     699.00
 76.07     645.00
 76.17     693.00
 76.27     704.00
 76.37     712.00
 76.47     737.00
 76.57     747.00
 76.67     863.77
 76.77     867.00
 76.87     890.10
 76.97     931.24
 77.07     916.45
 77.17     965.49
 77.27    1031.42
 77.37    1005.76
 77.47     967.00
 77.57     880.79
 77.67     863.00
 77.77     833.18
 77.87     759.00
 77.97     759.00
 78.07     675.00
 78.17     686.59
 78.27     687.35
 78.37     667.56
 78.47     640.00
 78.57     668.00
 78.67     675.70
 78.77     674.00
 78.87     606.00
 78.97     612.00
 79.07     570.00
 79.17     595.00
 79.27     591.15
 79.37     597.00
 79.47     576.00
 79.57     588.00
 79.67     629.00
 79.77     607.00
 79.87     606.00
 79.97     589.33
 80.07     594.31
 80.17     640.05
 80.27     651.00
 80.37     691.58
 80.47     691.63
 80.57     699.00
 80.67     740.00
 80.77     814.00
 80.87     876.00
 80.97     896.49
 81.07     939.53
 81.17    1035.00
 81.27    1076.73
 81.37    1227.00
 81.47    1267.00
 81.57    1273.59
 81.67    1455.00
 81.77    1468.00
 81.87    1412.00
 81.97    1401.00
 82.07    1372.00
 82.17    1349.00
 82.27    1237.00
 82.37    1196.00
 82.47    1128.81
 82.57    1086.00
 82.67     942.00
 82.77     914.74
 82.87     855.00
 82.97     849.36
 83.07     821.23
 83.17     733.53
 83.27     774.01
 83.37     664.62
 83.47     690.37
 83.57     709.71
 83.67     681.00
 83.77     681.19
 83.87     700.50
 83.97     652.07
 84.07     701.87
 84.17     616.00
 84.27     629.00
 84.37     637.00
 84.47     662.00
 84.57     680.00
 84.67     657.00
 84.77     735.31
 84.87     665.00
 84.97     641.00
 85.07     709.44
 85.17     663.00
 85.27     687.49
 85.37     589.00
 85.47     601.00
 85.57     630.00
 85.67     670.12
 85.77     601.00
 85.87     596.24
 85.97     641.00
 86.07     600.00
 86.17     605.64
 86.27     578.44
 86.37     652.00
 86.47     635.78
 86.57     613.00
 86.67     619.00
 86.77     652.85
 86.87     672.71
 86.97     610.37
 87.07     681.43
 87.17     735.00
 87.27     657.03
 87.37     671.00
 87.47     669.00
 87.57     739.00
 87.67     679.74
 87.77     662.87
 87.87     668.47
 87.97     685.65
 88.07     723.00
 88.17     682.00
 88.27     690.00
 88.37     701.00
 88.47     683.00
 88.57     665.00
 88.67     721.00
 88.77     647.00
 88.87     695.00
 88.97     659.00
 89.07     701.00
 89.17     649.88
 89.27     615.00
 89.37     673.00
 89.47     614.00
 89.57     659.00
 89.67     651.00
 89.77     709.27
 89.87     695.00
 89.97     679.00
 90.07     685.92
 90.17     671.00
 90.27     643.96
 90.37     667.00
 90.47     637.34
 90.57     612.05
 90.67     677.00
 90.77     654.00
 90.87     680.03
 90.97     590.00
 91.07     609.00
 91.17     613.00
 91.27     634.60
 91.37     611.00
 91.47     617.00
 91.57     606.00
 91.67     571.00
 91.77     621.00
 91.87     566.44
 91.97     606.00
 92.07     626.00
 92.17     618.00
 92.27     587.33
 92.37     631.00
 92.47     579.45
 92.57     602.05
 92.67     625.00
 92.77     609.53
 92.87     642.00
 92.97     678.66
 93.07     635.45
 93.17     703.90
 93.27     711.00
 93.37     746.00
 93.47     663.00
 93.57     699.00
 93.67     740.43
 93.77     773.00
 93.87     812.00
 93.97     759.00
 94.07     787.00
 94.17     847.00
 94.27     819.00
 94.37     910.00
 94.47     853.00
 94.57     900.40
 94.67     864.00
 94.77     905.00
 94.87     947.50
 94.97    1024.54
 95.07     932.22
 95.17     964.00
 95.27     971.78
 95.37     978.86
 95.47    1110.00
 95.57    1008.00
 95.67     993.00
 95.77    1011.00
 95.87    1066.46
 95.97    1029.00
 96.07     996.00
 96.17     901.00
 96.27     975.00
 96.37     873.03
 96.47     790.38
 96.57     813.24
 96.67     765.25
 96.77     847.00
 96.87     875.00
 96.97     754.97
 97.07     838.04
 97.17     890.00
 97.27     878.00
 97.37    1001.00
 97.47    1009.59
 97.57    1020.50
 97.67    1121.00
 97.77    1187.05
 97.87    1241.44
 97.97    1307.35
 98.07    1479.00
 98.17    1526.00
 98.27    1505.00
 98.37    1649.00
 98.47    1630.00
 98.57    1525.38
 98.67    1520.00
 98.77    1534.00
 98.87    1449.80
 98.97    1351.88
 99.07    1315.00
 99.17    1296.00
 99.27    1224.67
 99.37    1165.14
 99.47    1139.35
 99.57    1040.89
 99.67     982.00
 99.77    1070.88
 99.87     997.00
 99.97    1023.00
100.07    1082.00
100.17    1061.00
100.27    1089.89
100.37    1154.00
100.47    1221.00
100.57    1274.37
100.67    1356.00
100.77    1562.00
100.87    1576.18
100.97    1595.13
101.07    1741.00
101.17    1868.00
101.27    1836.52
101.37    2022.00
101.47    1982.10
101.57    2007.86
101.67    2049.00
101.77    2116.00
101.87    2107.82
101.97    2135.00
102.07    2073.38
102.17    1979.74
102.27    1916.32
102.37    1938.00
102.47    1780.00
102.57    1686.12
102.67    1750.62
102.77    1611.00
102.87    1571.00
102.97    1504.17
103.07    1445.00
103.17    1365.00
103.27    1303.97
103.37    1280.18
103.47    1279.00
103.57    1280.54
103.67    1298.58
103.77    1212.33
103.87    1179.00
103.97    1102.00
104.07    1086.00
104.17    1081.00
104.27     963.00
104.37    1003.00
104.47     913.00
104.57     897.00
104.67     825.00
104.77     799.00
104.87     716.81
104.97     737.00
105.07     753.24
105.17     652.72
105.27     702.91
105.37     606.24
105.47     682.00
105.57     647.72
105.67     595.48
105.77     656.00
105.87     602.18
105.97     645.00
106.07     616.00
106.17     584.00
106.27     598.00
106.37     636.27
106.47     625.00
106.57     594.32
106.67     618.00
106.77     620.00
106.87     679.00
106.97     656.88
107.07     641.20
107.17     637.00
107.27     681.00
107.37     682.06
107.47     696.00
107.57     698.25
107.67     714.00
107.77     713.00
107.87     751.00
107.97     749.00
108.07     757.42
108.17     769.55
108.27     774.00
108.37     747.00
108.47     793.00
108.57     770.00
108.67     806.00
108.77     749.00
108.87     779.00
108.97     730.09
109.07     756.00
109.17     828.68
109.27     732.91
109.37     720.00
109.47     753.08
109.57     751.00
109.67     736.00
109.77     735.00
109.87     771.00
109.97     801.17
110.07     743.00
110.17     755.00
110.27     754.00
110.37     698.00
110.47     757.00
110.57     740.55
110.67     782.65
110.77     756.00
110.87     723.00
110.97     703.00
111.07     703.00
111.17     665.00
111.27     700.00
111.37     686.00
111.47     703.00
111.57     662.00
111.67     596.00
111.77     604.00
111.87     618.00
111.97     607.12
112.07     651.00
112.17     645.00
112.27     586.00
112.37     634.00
112.47     618.00
112.57     565.62
112.67     623.00
112.77     555.35
112.87     547.00
112.97     621.00
113.07     641.75
113.17     564.34
113.27     600.00
113.37     618.00
113.47     634.00
113.57     650.00
113.67     613.00
113.77     624.61
113.87     633.22
113.97     659.00
114.07     678.14
114.17     623.00
114.27     619.00
114.37     664.22
114.47     677.42
114.57     703.03
114.67     673.00
114.77     736.00
114.87     801.00
114.97     782.00
115.07     848.00
115.17     861.00
115.27     877.00
115.37    1017.00
115.47    1171.12
115.57    1173.00
115.67    1328.00
115.77    1435.00
115.87    1590.85
115.97    1927.00
116.07    2137.62
116.17    2319.00
116.27    2620.00
116.37    2788.74
116.47    3228.00
116.57    3628.09
116.67    3731.00
116.77    4260.17
116.87    4652.00
116.97    4845.00
117.07    5452.00
117.17    5722.00
117.27    6218.81
117.37    6477.52
117.47    6862.00
117.57    7214.00
117.67    7356.00
117.77    7605.00
117.87    7539.59
117.97    7567.94
118.07    7509.00
118.17    7343.00
118.27    7151.96
118.37    7039.36
118.47    6617.10
118.57    6186.00
118.67    5881.00
118.77    5496.00
118.87    5245.00
118.97    4888.00
119.07    4538.00
119.17    4146.00
119.27    3796.00
119.37    3315.77
119.47    2961.24
119.57    2840.74
119.67    2435.92
119.77    2267.05
119.87    2082.00
119.97    1875.11
120.07    1722.00
120.17    1575.00
120.27    1490.00
120.37    1236.00
120.47    1223.87
120.57    1203.00
120.67    1145.00
120.77     999.00
120.87     970.00
120.97     932.00
121.07     919.77
121.17     833.00
121.27     835.00
121.37     837.36
121.47     786.33
121.57     741.00
121.67     727.56
121.77     726.00
121.87     695.00
121.97     713.00
122.07     706.23
122.17     695.00
122.27     640.00
122.37     690.00
122.47     666.00
122.57     674.00
122.67     640.00
122.77     656.00
122.87     756.66
122.97     735.98
123.07     674.00
123.17     751.00
123.27     696.00
123.37     792.00
123.47     743.00
123.57     769.00
123.67     779.16
123.77     779.00
123.87     757.00
123.97     744.00
124.07     781.00
124.17     785.00
124.27     782.00
124.37     793.00
124.47     766.63
124.57     777.56
124.67     781.00
124.77     789.00
124.87     782.00
124.97     765.00
