  9.97     684.00
 10.07     623.01
 10.17     621.04
 10.27     614.93
 10.37     640.00
 10.47     683.23
 10.57     687.00
 10.67     646.00
 10.77     716.00
 10.87     693.30
 10.97     627.00
 11.07     676.00
 11.17     653.00
 11.27     678.00
 11.37     689.00
 11.47     694.00
 11.57     724.00
 11.67     695.00
 11.77     741.00
 11.87     702.33
 11.97     752.00
 12.07     794.00
 12.17     814.00
 12.27     748.00
 12.37     768.00
 12.47     737.00
 12.57     719.00
 12.67     624.00
 12.77     642.00
 12.87     679.00
 12.97     681.32
 13.07     644.47
 13.17     619.00
 13.27     603.51
 13.37     624.00
 13.47     616.00
 13.57     640.00
 13.67     600.81
 13.77     656.10
 13.87     637.94
 13.97     596.00
 14.07     628.00
 14.17     607.00
 14.27     610.60
 14.37     594.00
 14.47     642.00
 14.57     681.73
 14.67     606.00
 14.77     595.00
 14.87     614.00
 14.97     631.05
 15.07     603.00
 15.17     677.00
 15.27     626.00
 15.37     672.00
 15.47     651.00
 15.57     673.20
 15.67     619.22
 15.77     645.12
 15.87     632.26
 15.97     571.00
 16.07     646.59
 16.17     588.00
 16.27     587.00
 16.37     637.00
 16.47     618.00
 16.57     576.00
 16.67     612.00
 16.77     583.00
 16.87     614.74
 16.97     605.00
 17.07     565.00
 17.17     632.72
 17.27     595.20
 17.37     584.00
 17.47     627.00
 17.57     585.69
 17.67     591.00
 17.77     606.00
 17.87     581.00
 17.97     600.00
 18.07     558.00
 18.17     661.00
 18.27     573.00
 18.37     592.30
 18.47     609.00
 18.57     575.00
 18.67     658.00
 18.77     613.00
 18.87     650.24
 18.97     661.51
 19.07     649.46
 19.17     646.87
 19.27     583.00
 19.37     570.82
 19.47     628.00
 19.57     599.00
 19.67     578.41
 19.77     570.00
 19.87     629.58
 19.97     641.00
 20.07     556.00
 20.17     612.92
 20.27     614.00
 20.37     628.00
 20.47     608.00
 20.57     574.00
 20.67     564.00
 20.77     644.20
 20.87     583.00
 20.97     642.16
 21.07     563.00
 21.17     564.00
 21.27     578.00
 21.37     584.00
 21.47     619.00
 21.57     590.41
 21.67     572.04
 21.77     584.67
 21.87     605.00
 21.97     628.17
 22.07     609.00
 22.17     552.83
 22.27     572.00
 22.37     648.90
 22.47     551.39
 22.57     590.51
 22.67     603.00
 22.77     597.00
 22.87     586.00
 22.97     579.00
 23.07     632.00
 23.17     577.15
 23.27     638.00
 23.37     604.00
 23.47     584.00
 23.57     582.96
 23.67     622.18
 23.77     598.00
 23.87     607.00
 23.97     579.93
 24.07     639.24
 24.17     576.00
 24.27     582.00
 24.37     641.80
 24.47     644.23
 24.57     635.79
 24.67     674.00
 24.77     618.00
 24.87     685.00
 24.97     708.00
 25.07     704.96
 25.17     686.03
 25.27     645.00
 25.37     701.00
 25.47     651.00
 25.57     602.00
 25.67     582.00
 25.77     651.00
 25.87     648.00
 25.97     608.00
 26.07     639.00
 26.17     675.00
 26.27     635.00
 26.37     625.00
 26.47     605.09
 26.57     632.00
 26.67     595.00
 26.77     569.48
 26.87     660.00
 26.97     628.00
 27.07     662.00
 27.17     636.83
 27.27     700.00
 27.37     709.33
 27.47     621.95
 27.57     663.51
 27.67     725.84
 27.77     841.00
 27.87     859.27
 27.97    1106.00
 28.07    1651.95
 28.17    2381.90
 28.27    3084.45
 28.37    3751.22
 28.47    3660.00
 28.57    3030.00
 28.67    2317.96
 28.77    1945.17
 28.87    1912.00
 28.97    2106.00
 29.07    2175.25
 29.17    2231.16
 29.27    1823.63
 29.37    1503.64
 29.47    1148.00
 29.57     927.00
 29.67     790.00
 29.77     697.67
 29.87     656.25
 29.97     750.00
 30.07     613.35
 30.17     683.00
 30.27     588.17
 30.37     682.00
 30.47     659.00
 30.57     658.00
 30.67     687.00
 30.77     651.00
 30.87     644.00
 30.97     698.00
 31.07     697.49
 31.17     733.80
 31.27     729.46
 31.37     690.00
 31.47     695.00
 31.57     619.00
 31.67     589.66
 31.77     639.00
 31.87     622.61
 31.97     647.00
 32.07     572.00
 32.17     596.00
 32.27     595.00
 32.37     562.36
 32.47     582.69
 32.57     601.00
 32.67     655.00
 32.77     602.20
 32.87     567.00
 32.97     648.00
 33.07     600.00
 33.17     618.00
 33.27     573.00
 33.37     549.32
 33.47     561.63
 33.57     628.97
 33.67     590.31
 33.77     672.00
 33.87     699.24
 33.97     871.00
 34.07     956.00
 34.17    1006.83
 34.27    1058.00
 34.37    1034.00
 34.47     919.00
 34.57     855.14
 34.67     772.65
 34.77     640.00
 34.87     627.00
 34.97     623.00
 35.07     640.12
 35.17     612.00
 35.27     595.00
 35.37     559.10
 35.47     562.03
 35.57     604.08
 35.67     548.45
 35.77     513.00
 35.87     581.00
 35.97     529.00
 36.07     578.00
 36.17     545.00
 36.27     567.00
 36.37     555.35
 36.47     531.33
 36.57     552.00
 36.67     550.00
 36.77     538.00
 36.87     537.00
 36.97     513.84
 37.07     598.55
 37.17     590.21
 37.27     581.00
 37.37     523.00
 37.47     557.00
 37.57     534.00
 37.67     551.00
 37.77     553.91
 37.87     599.84
 37.97     569.37
 38.07     614.00
 38.17     618.00
 38.27     679.43
 38.37     675.22
 38.47     589.00
 38.57     588.00
 38.67     563.09
 38.77     604.74
 38.87     552.00
 38.97     557.00
 39.07     537.00
 39.17     585.96
 39.27     554.00
 39.37     522.00
 39.47     547.60
 39.57     546.06
 39.67     514.32
 39.77     613.00
 39.87     506.89
 39.97     545.00
 40.07     512.00
 40.17     522.00
 40.27     567.77
 40.37     524.00
 40.47     592.36
 40.57     573.00
 40.67     495.00
 40.77     589.95
 40.87     540.75
 40.97     537.38
 41.07     525.94
 41.17     565.00
 41.27     512.09
 41.37     521.22
 41.47     549.00
 41.57     590.69
 41.67     541.00
 41.77     522.93
 41.87     544.61
 41.97     479.00
 42.07     573.00
 42.17     510.07
 42.27     599.16
 42.37     557.39
 42.47     622.83
 42.57     571.78
 42.67     607.00
 42.77     593.00
 42.87     588.00
 42.97     620.00
 43.07     615.00
 43.17     639.00
 43.27     582.00
 43.37     560.00
 43.47     581.00
 43.57     530.00
 43.67     570.00
 43.77     569.88
 43.87     569.00
 43.97     515.00
 44.07     548.00
 44.17     577.00
 44.27     544.00
 44.37     572.00
 44.47     587.90
 44.57     501.00
 44.67     523.21
 44.77     583.57
 44.87     558.00
 44.97     533.00
 45.07     527.99
 45.17     535.00
 45.27     565.00
 45.37     552.00
 45.47     570.00
 45.57     565.00
 45.67     591.00
 45.77     608.00
 45.87     512.00
 45.97     501.01
 46.07     584.14
 46.17     568.00
 46.27     570.74
 46.37     584.25
 46.47     566.00
 46.57     516.00
 46.67     593.82
 46.77     532.08
 46.87     560.00
 46.97     532.00
 47.07     553.00
 47.17     572.00
 47.27     550.00
 47.37     577.00
 47.47     577.03
 47.57     614.00
 47.67     539.00
 47.77     554.38
 47.87     600.34
 47.97     634.00
 48.07     613.68
 48.17     604.30
 48.27     652.00
 48.37     629.00
 48.47     590.00
 48.57     623.00
 48.67     550.49
 48.77     561.52
 48.87     636.54
 48.97     581.74
 49.07     571.25
 49.17     582.00
 49.27     536.00
 49.37     577.00
 49.47     581.48
 49.57     680.99
 49.67     687.50
 49.77     776.00
 49.87     952.40
 49.97    1124.00
 50.07    1306.00
 50.17    1870.33
 50.27    2205.15
 50.37    2500.11
 50.47    2669.00
 50.57    2557.24
 50.67    2172.92
 50.77    1865.00
 50.87    1533.38
 50.97    1197.27
 51.07     913.00
 51.17     821.00
 51.27     745.00
 51.37     682.00
 51.47     720.00
 51.57     708.00
 51.67     693.00
 51.77     634.00
 51.87     613.00
 51.97     648.37
 52.07     577.11
 52.17     657.00
 52.27     645.00
 52.37     616.30
 52.47     642.44
 52.57     613.00
 52.67     614.00
 52.77     653.00
 52.87     568.96
 52.97     621.04
 53.07     709.32
 53.17     695.00
 53.27     710.32
 53.37     814.22
 53.47     948.00
 53.57    1084.00
 53.67    1187.00
 53.77    1179.16
 53.87    1263.00
 53.97    1123.00
 54.07    1089.35
 54.17     975.00
 54.27     873.31
 54.37     762.00
 54.47     757.95
 54.57     692.00
 54.67     626.51
 54.77     668.02
 54.87     650.00
 54.97     634.00
 55.07     617.00
 55.17     601.00
 55.27     632.05
 55.37     609.00
 55.47     642.17
 55.57     625.00
 55.67     635.00
 55.77     654.00
 55.87     626.00
 55.97     649.00
 56.07     659.78
 56.17     684.00
 56.27     718.00
 56.37     758.16
 56.47     902.00
 56.57    1013.00
 56.67    1338.86
 56.77    1528.99
 56.87    1804.74
 56.97    2173.00
 57.07    2373.21
 57.17    2599.00
 57.27    2584.07
 57.37    2434.00
 57.47    2152.63
 57.57    1701.00
 57.67    1404.49
 57.77    1248.62
 57.87    1009.69
 57.97     829.00
 58.07     773.11
 58.17     765.00
 58.27     793.28
 58.37     701.00
 58.47     828.01
 58.57     775.00
 58.67     879.00
 58.77     891.00
 58.87    1039.00
 58.97    1068.00
 59.07    1210.00
 59.17    1200.45
 59.27    1311.00
 59.37    1271.52
 59.47    1215.20
 59.57    1239.00
 59.67    1168.66
 59.77    1151.00
 59.87    1144.00
 59.97    1173.00
 60.07    1131.00
 60.17    1337.00
 60.27    1316.84
 60.37    1484.00
 60.47    1631.00
 60.57    1631.00
 60.67    1557.62
 60.77    1457.05
 60.87    1396.00
 60.97    1086.57
 61.07    1079.23
 61.17     959.59
 61.27     871.00
 61.37     798.28
 61.47     731.00
 61.57     737.89
 61.67     786.00
 61.77     759.90
 61.87     816.23
 61.97     943.00
 62.07    1096.00
 62.17    1145.00
 62.27    1377.12
 62.37    1468.90
 62.47    1504.85
 62.57    1470.00
 62.67    1394.00
 62.77    1259.00
 62.87    1086.00
 62.97    1009.00
 63.07     980.85
 63.17     788.00
 63.27     725.00
 63.37     741.00
 63.47     705.00
 63.57     615.00
 63.67     680.00
 63.77     618.00
 63.87     660.00
 63.97     646.00
 64.07     653.00
 64.17     687.00
 64.27     758.48
 64.37     772.00
 64.47     858.66
 64.57     968.00
 64.67    1102.00
 64.77    1160.00
 64.87    1147.00
 64.97    1229.00
 65.07    1243.00
 65.17    1268.00
 65.27    1113.64
 65.37    1101.00
 65.47    1057.00
 65.57     886.00
 65.67     843.00
 65.77     797.00
 65.87     819.14
 65.97     740.00
 66.07     752.04
 66.17     629.00
 66.27     631.37
 66.37     621.82
 66.47     640.00
 66.57     640.00
 66.67     610.00
 66.77     620.88
 66.87     671.64
 66.97     602.09
 67.07     632.00
 67.17     672.00
 67.27     703.00
 67.37     720.38
 67.47     755.64
 67.57     845.00
 67.67     928.04
 67.77    1088.00
 67.87    1274.00
 67.97    1448.01
 68.07    1685.60
 68.17    1868.00
 68.27    2188.00
 68.37    2344.00
 68.47    2374.55
 68.57    2336.00
 68.67    2245.00
 68.77    2020.00
 68.87    1853.00
 68.97    1560.00
 69.07    1314.00
 69.17    1258.33
 69.27    1089.01
 69.37     859.86
 69.47     814.00
 69.57     792.00
 69.67     789.00
 69.77     707.00
 69.87     737.00
 69.97     638.00
 70.07     655.55
 70.17     608.00
 70.27     675.17
 70.37     677.20
 70.47     620.97
 70.57     632.87
 70.67     618.00
 70.77     609.59
 70.87     640.00
 70.97     596.54
 71.07     688.00
 71.17     627.00
 71.27     678.80
 71.37     684.53
 71.47     772.95
 71.57     788.29
 71.67     928.16
 71.77    1039.21
 71.87    1154.00
 71.97    1319.79
 72.07    1449.00
 72.17    1558.59
 72.27    1711.00
 72.37    1811.97
 72.47    1976.08
 72.57    1859.00
 72.67    1760.00
 72.77    1695.00
 72.87    1448.00
 72.97    1283.47
 73.07    1173.00
 73.17    1044.59
 73.27     904.56
 73.37     867.00
 73.47     772.00
 73.57     754.00
 73.67     719.00
 73.77     681.00
 73.87     644.15
 73.97     587.12
 74.07     624.00
 74.17     635.00
 74.27     684.00
 74.37     573.25
 74.47     636.73
 74.57     626.00
 74.67     620.00
 74.77     670.00
 74.87     630.00
 74.97     593.35
 75.07     726.00
 75.17     638.12
 75.27     580.63
 75.37     698.00
 75.47     625.17
 75.57     646.00
 75.67     646.00
 75.77     621.00
 75.87     609.00
 75.97     655.00
 76.07     626.00
 76.17     662.00
 76.27     665.00
 76.37     734.00
 76.47     690.00
 76.57     736.00
 76.67     760.00
 76.77     807.00
 76.87     755.00
 76.97     865.00
 77.07     807.09
 77.17     792.00
 77.27     797.00
 77.37     784.00
 77.47     758.27
 77.57     659.92
 77.67     628.79
 77.77     675.00
 77.87     614.00
 77.97     585.00
 78.07     580.00
 78.17     610.00
 78.27     565.00
 78.37     551.00
 78.47     603.30
 78.57     575.15
 78.67     525.00
 78.77     601.89
 78.87     558.00
 78.97     557.00
 79.07     512.00
 79.17     519.00
 79.27     538.76
 79.37     565.00
 79.47     607.00
 79.57     552.19
 79.67     552.00
 79.77     514.00
 79.87     606.86
 79.97     570.86
 80.07     583.00
 80.17     572.53
 80.27     623.31
 80.37     659.21
 80.47     599.54
 80.57     603.00
 80.67     662.00
 80.77     674.00
 80.87     724.00
 80.97     825.43
 81.07     782.03
 81.17     870.00
 81.27     931.00
 81.37     924.00
 81.47     906.33
 81.57     973.34
 81.67    1003.00
 81.77     968.00
 81.87     960.00
 81.97     901.09
 82.07     898.00
 82.17     928.00
 82.27     866.00
 82.37     865.00
 82.47     781.00
 82.57     757.66
 82.67     768.00
 82.77     713.40
 82.87     665.92
 82.97     659.00
 83.07     669.00
 83.17     649.14
 83.27     586.00
 83.37     614.16
 83.47     614.00
 83.57     563.00
 83.67     583.00
 83.77     625.00
 83.87     582.32
 83.97     605.00
 84.07     557.00
 84.17     578.03
 84.27     575.00
 84.37     621.00
 84.47     606.33
 84.57     656.51
 84.67     593.00
 84.77     590.00
 84.87     638.00
 84.97     606.00
 85.07     549.00
 85.17     566.53
 85.27     575.00
 85.37     548.00
 85.47     558.04
 85.57     577.22
 85.67     569.00
 85.77     603.00
 85.87     572.84
 85.97     549.00
 86.07     605.18
 86.17     531.20
 86.27     529.92
 86.37     595.00
 86.47     570.00
 86.57     562.00
 86.67     602.00
 86.77     608.00
 86.87     590.00
 86.97     572.00
 87.07     575.02
 87.17     618.00
 87.27     623.00
 87.37     587.00
 87.47     671.09
 87.57     664.00
 87.67     640.00
 87.77     696.00
 87.87     640.66
 87.97     701.00
 88.07     647.00
 88.17     637.80
 88.27     619.55
 88.37     659.27
 88.47     631.00
 88.57     670.00
 88.67     651.00
 88.77     585.31
 88.87     639.00
 88.97     648.57
 89.07     601.00
 89.17     593.00
 89.27     610.00
 89.37     623.00
 89.47     615.00
 89.57     575.56
 89.67     637.00
 89.77     609.00
 89.87     595.00
 89.97     604.00
 90.07     646.06
 90.17     580.00
 90.27     582.42
 90.37     619.00
 90.47     589.41
 90.57     606.00
 90.67     585.47
 90.77     561.00
 90.87     609.00
 90.97     562.00
 91.07     554.00
 91.17     558.00
 91.27     537.00
 91.37     525.00
 91.47     530.00
 91.57     520.75
 91.67     516.74
 91.77     563.00
 91.87     513.00
 91.97     544.00
 92.07     565.21
 92.17     596.00
 92.27     529.61
 92.37     537.00
 92.47     577.00
 92.57     563.00
 92.67     622.00
 92.77     592.00
 92.87     580.20
 92.97     600.00
 93.07     659.79
 93.17     624.64
 93.27     708.00
 93.37     627.00
 93.47     671.69
 93.57     688.86
 93.67     798.00
 93.77     748.00
 93.87     768.00
 93.97     816.00
 94.07     764.00
 94.17     782.00
 94.27     854.00
 94.37     853.00
 94.47     904.15
 94.57     882.89
 94.67     890.00
 94.77     949.00
 94.87     926.00
 94.97     927.00
 95.07     978.00
 95.17     932.00
 95.27     973.00
 95.37     991.00
 95.47     971.00
 95.57     951.43
 95.67     961.00
 95.77     898.00
 95.87     865.00
 95.97     932.00
 96.07     805.42
 96.17     817.00
 96.27     761.49
 96.37     759.00
 96.47     799.00
 96.57     751.00
 96.67     774.00
 96.77     818.00
 96.87     766.04
 96.97     796.00
 97.07     931.00
 97.17     959.00
 97.27    1033.92
 97.37    1118.00
 97.47    1187.73
 97.57    1205.00
 97.67    1254.00
 97.77    1307.00
 97.87    1359.00
 97.97    1468.00
 98.07    1553.00
 98.17    1549.00
 98.27    1530.00
 98.37    1491.34
 98.47    1500.00
 98.57    1402.00
 98.67    1422.00
 98.77    1290.53
 98.87    1264.00
 98.97    1148.00
 99.07    1171.20
 99.17    1067.00
 99.27     981.00
 99.37     971.00
 99.47     941.00
 99.57     960.00
 99.67     906.58
 99.77     942.00
 99.87     993.00
 99.97    1079.46
100.07    1120.00
100.17    1234.00
100.27    1264.00
100.37    1313.00
100.47    1382.00
100.57    1575.00
100.67    1589.00
100.77    1607.45
100.87    1765.00
100.97    1798.87
101.07    1881.00
101.17    2015.58
101.27    1953.65
101.37    2027.09
101.47    2071.00
101.57    1968.72
101.67    1989.00
101.77    1944.00
101.87    1905.00
101.97    1813.00
102.07    1802.00
102.17    1759.50
102.27    1574.95
102.37    1461.00
102.47    1516.89
102.57    1441.52
102.67    1324.08
102.77    1283.97
102.87    1270.00
102.97    1186.00
103.07    1190.00
103.17    1155.00
103.27    1166.00
103.37    1186.70
103.47    1147.37
103.57    1090.00
103.67    1036.00
103.77     954.27
103.87    1003.78
103.97     929.60
104.07     843.09
104.17     895.00
104.27     763.80
104.37     828.00
104.47     782.00
104.57     672.97
104.67     693.00
104.77     682.86
104.87     689.00
104.97     588.23
105.07     626.00
105.17     643.74
105.27     622.00
105.37     614.61
105.47     536.48
105.57     574.43
105.67     601.00
105.77     637.00
105.87     578.85
105.97     604.00
106.07     599.43
106.17     579.00
106.27     531.54
106.37     530.02
106.47     533.24
106.57     562.87
106.67     606.00
106.77     594.00
106.87     641.00
106.97     652.00
107.07     687.00
107.17     617.00
107.27     652.00
107.37     691.81
107.47     720.00
107.57     689.00
107.67     723.00
107.77     669.00
107.87     683.00
107.97     732.00
108.07     748.72
108.17     685.20
108.27     687.00
108.37     734.49
108.47     718.64
108.57     700.00
108.67     775.45
108.77     710.00
108.87     712.00
108.97     715.00
109.07     707.00
109.17     721.00
109.27     751.00
109.37     682.00
109.47     744.46
109.57     730.00
109.67     720.00
109.77     708.00
109.87     726.00
109.97     697.58
110.07     726.88
110.17     674.00
110.27     749.51
110.37     703.34
110.47     667.00
110.57     650.00
110.67     677.63
110.77     645.00
110.87     640.00
110.97     619.00
111.07     613.00
111.17     605.00
111.27     580.46
111.37     603.00
111.47     608.00
111.57     601.00
111.67     581.87
111.77     595.00
111.87     607.21
111.97     611.00
112.07     602.00
112.17     538.68
112.27     531.00
112.37     560.00
112.47     583.00
112.57     601.00
112.67     554.00
112.77     559.00
112.87     548.73
112.97     586.00
113.07     588.00
113.17     588.00
113.27     612.00
113.37     572.00
113.47     585.00
113.57     640.18
113.67     627.00
113.77     612.28
113.87     637.00
113.97     650.00
114.07     643.00
114.17     681.00
114.27     647.00
114.37     678.00
114.47     666.00
114.57     712.00
114.67     799.50
114.77     869.31
114.87     852.00
114.97     970.00
115.07    1017.00
115.17    1083.94
115.27    1197.00
115.37    1332.00
115.47    1523.00
115.57    1675.18
115.67    1952.84
115.77    2177.75
115.87    2447.00
115.97    2625.33
116.07    2977.00
116.17    3177.00
116.27    3670.00
116.37    3967.00
116.47    4317.00
116.57    4809.00
116.67    5245.25
116.77    5469.03
116.87    5873.00
116.97    6122.07
117.07    6588.00
117.17    6820.00
117.27    6863.86
117.37    7063.00
117.47    7357.93
117.57    7159.00
117.67    7160.00
117.77    7041.00
117.87    6919.76
117.97    6760.13
118.07    6535.36
118.17    5892.00
118.27    5518.00
118.37    5180.00
118.47    4864.00
118.57    4670.00
118.67    4240.91
118.77    3907.00
118.87    3549.00
118.97    3272.54
119.07    2885.00
119.17    2501.00
119.27    2315.81
119.37    2149.00
119.47    1997.00
119.57    1785.30
119.67    1602.00
119.77    1423.00
119.87    1373.00
119.97    1168.00
120.07    1103.12
120.17    1065.57
120.27     980.00
120.37     898.34
120.47     866.00
120.57     843.00
120.67     840.00
120.77     771.19
120.87     773.00
120.97     688.00
121.07     717.00
121.17     661.00
121.27     727.09
121.37     709.30
121.47     634.00
121.57     678.00
121.67     633.55
121.77     607.00
121.87     706.43
121.97     654.00
122.07     617.00
122.17     692.98
122.27     634.98
122.37     623.28
122.47     649.00
122.57     672.00
122.67     629.00
122.77     718.38
122.87     678.00
122.97     652.71
123.07     731.02
123.17     664.00
123.27     697.00
123.37     670.00
123.47     659.00
123.57     719.68
123.67     725.00
123.77     651.40
123.87     711.00
123.97     707.00
124.07     734.03
124.17     723.15
124.27     736.00
124.37     685.00
124.47     696.60
124.57     736.00
124.67     726.18
124.77     693.00
124.87     718.00
124.97     700.00
