  9.97     575.00
 10.07     581.00
 10.17     600.00
 10.27     587.00
 10.37     555.00
 10.47     619.00
 10.57     606.00
 10.67     577.00
 10.77     589.00
 10.87     628.00
 10.97     552.88
 11.07     610.37
 11.17     642.00
 11.27     604.00
 11.37     561.69
 11.47     582.00
 11.57     621.00
 11.67     621.00
 11.77     632.00
 11.87     642.00
 11.97     684.16
 12.07     628.77
 12.17     657.58
 12.27     729.00
 12.37     636.00
 12.47     627.00
 12.57     574.00
 12.67     571.00
 12.77     586.00
 12.87     558.00
 12.97     547.00
 13.07     579.00
 13.17     617.81
 13.27     570.00
 13.37     596.00
 13.47     607.86
 13.57     605.85
 13.67     562.00
 13.77     533.11
 13.87     604.00
 13.97     536.93
 14.07     553.00
 14.17     558.00
 14.27     587.00
 14.37     534.00
 14.47     548.00
 14.57     598.00
 14.67     540.00
 14.77     529.00
 14.87     582.00
 14.97     588.27
 15.07     520.00
 15.17     565.29
 15.27     548.00
 15.37     567.00
 15.47     539.46
 15.57     534.00
 15.67     576.00
 15.77     585.00
 15.87     553.00
 15.97     549.00
 16.07     568.00
 16.17     518.00
 16.27     599.79
 16.37     578.20
 16.47     596.00
 16.57     563.00
 16.67     577.00
 16.77     597.62
 16.87     550.46
 16.97     535.38
 17.07     538.50
 17.17     564.00
 17.27     573.00
 17.37     587.00
 17.47     575.00
 17.57     592.00
 17.67     588.00
 17.77     566.00
 17.87     535.32
 17.97     580.00
 18.07     579.00
 18.17     597.85
 18.27     551.00
 18.37     512.00
 18.47     551.42
 18.57     530.44
 18.67     554.09
 18.77     535.00
 18.87     594.00
 18.97     544.00
 19.07     551.00
 19.17     579.00
 19.27     579.00
 19.37     539.00
 19.47     521.41
 19.57     604.40
 19.67     567.00
 19.77     577.00
 19.87     553.00
 19.97     547.00
 20.07     551.00
 20.17     510.00
 20.27     556.00
 20.37     505.00
 20.47     551.00
 20.57     540.00
 20.67     556.83
 20.77     539.00
 20.87     546.99
 20.97     542.00
 21.07     587.00
 21.17     542.70
 21.27     546.00
 21.37     509.05
 21.47     515.00
 21.57     569.63
 21.67     552.00
 21.77     553.58
 21.87     540.00
 21.97     589.71
 22.07     574.00
 22.17     567.00
 22.27     525.00
 22.37     516.00
 22.47     566.22
 22.57     567.97
 22.67     580.00
 22.77     555.00
 22.87     510.00
 22.97     531.00
 23.07     557.00
 23.17     514.00
 23.27     541.00
 23.37     578.66
 23.47     538.00
 23.57     562.00
 23.67     551.00
 23.77     582.00
 23.87     574.73
 23.97     555.00
 24.07     585.79
 24.17     569.00
 24.27     580.00
 24.37     589.23
 24.47     570.85
 24.57     638.51
 24.67     595.00
 24.77     610.03
 24.87     612.77
 24.97     601.00
 25.07     616.00
 25.17     551.00
 25.27     575.54
 25.37     551.00
 25.47     513.39
 25.57     534.00
 25.67     536.00
 25.77     508.00
 25.87     529.00
 25.97     519.84
 26.07     526.00
 26.17     580.71
 26.27     563.00
 26.37     571.00
 26.47     518.15
 26.57     549.37
 26.67     524.00
 26.77     514.85
 26.87     555.00
 26.97     542.00
 27.07     500.75
 27.17     561.00
 27.27     566.00
 27.37     550.00
 27.47     561.04
 27.57     585.00
 27.67     568.00
 27.77     573.00
 27.87     612.00
 27.97     620.00
 28.07     782.00
 28.17     948.60
 28.27     969.00
 28.37     938.00
 28.47     792.00
 28.57     694.21
 28.67     718.68
 28.77     745.00
 28.87     787.00
 28.97     834.81
 29.07     806.55
 29.17     683.00
 29.27     681.00
 29.37     597.00
 29.47     607.00
 29.57     676.00
 29.67     618.57
 29.77     596.00
 29.87     564.00
 29.97     580.80
 30.07     558.00
 30.17     550.00
 30.27     550.80
 30.37     522.63
 30.47     560.59
 30.57     571.00
 30.67     517.00
 30.77     640.00
 30.87     643.00
 30.97     644.59
 31.07     610.00
 31.17     571.15
 31.27     590.00
 31.37     555.00
 31.47     527.56
 31.57     521.54
 31.67     582.00
 31.77     504.13
 31.87     558.00
 31.97     519.00
 32.07     528.00
 32.17     491.65
 32.27     511.84
 32.37     573.92
 32.47     508.63
 32.57     556.00
 32.67     562.27
 32.77     570.00
 32.87     581.00
 32.97     536.00
 33.07     557.00
 33.17     537.92
 33.27     546.57
 33.37     506.00
 33.47     592.00
 33.57     601.64
 33.67     665.00
 33.77     733.00
 33.87     849.00
 33.97    1040.31
 34.07    1075.00
 34.17    1008.00
 34.27     926.15
 34.37     798.48
 34.47     665.00
 34.57     579.00
 34.67     542.94
 34.77     553.11
 34.87     533.00
 34.97     546.00
 35.07     544.00
 35.17     502.41
 35.27     507.00
 35.37     562.48
 35.47     526.00
 35.57     503.00
 35.67     534.00
 35.77     497.00
 35.87     497.94
 35.97     493.50
 36.07     505.00
 36.17     491.00
 36.27     497.00
 36.37     511.46
 36.47     479.00
 36.57     530.00
 36.67     534.00
 36.77     516.00
 36.87     534.00
 36.97     536.00
 37.07     482.34
 37.17     525.00
 37.27     541.51
 37.37     493.80
 37.47     529.00
 37.57     553.00
 37.67     500.99
 37.77     502.00
 37.87     485.00
 37.97     533.00
 38.07     518.00
 38.17     481.26
 38.27     522.78
 38.37     505.05
 38.47     547.00
 38.57     519.00
 38.67     530.10
 38.77     519.18
 38.87     477.00
 38.97     538.00
 39.07     488.50
 39.17     478.71
 39.27     484.00
 39.37     538.10
 39.47     498.00
 39.57     496.10
 39.67     522.00
 39.77     535.30
 39.87     523.00
 39.97     515.00
 40.07     511.69
 40.17     512.00
 40.27     510.00
 40.37     496.00
 40.47     475.00
 40.57     521.00
 40.67     543.30
 40.77     493.00
 40.87     468.00
 40.97     492.00
 41.07     477.80
 41.17     489.00
 41.27     542.71
 41.37     532.72
 41.47     527.00
 41.57     507.12
 41.67     536.00
 41.77     534.11
 41.87     470.00
 41.97     469.00
 42.07     487.87
 42.17     521.91
 42.27     532.00
 42.37     558.45
 42.47     591.40
 42.57     572.36
 42.67     587.00
 42.77     609.00
 42.87     650.43
 42.97     565.00
 43.07     584.15
 43.17     512.00
 43.27     512.00
 43.37     502.00
 43.47     474.00
 43.57     536.00
 43.67     526.00
 43.77     549.04
 43.87     530.00
 43.97     530.00
 44.07     485.00
 44.17     521.48
 44.27     488.00
 44.37     512.00
 44.47     481.78
 44.57     487.23
 44.67     507.00
 44.77     529.00
 44.87     542.00
 44.97     517.00
 45.07     480.00
 45.17     509.00
 45.27     516.00
 45.37     504.65
 45.47     504.31
 45.57     502.00
 45.67     517.00
 45.77     498.00
 45.87     497.00
 45.97     534.00
 46.07     563.00
 46.17     544.86
 46.27     517.00
 46.37     502.00
 46.47     494.00
 46.57     495.00
 46.67     525.00
 46.77     523.00
 46.87     531.44
 46.97     555.55
 47.07     530.41
 47.17     477.75
 47.27     513.00
 47.37     534.00
 47.47     581.65
 47.57     534.00
 47.67     600.00
 47.77     581.00
 47.87     631.59
 47.97     597.49
 48.07     578.00
 48.17     592.00
 48.27     585.69
 48.37     537.00
 48.47     528.00
 48.57     539.00
 48.67     515.96
 48.77     532.00
 48.87     537.00
 48.97     539.00
 49.07     524.00
 49.17     567.00
 49.27     647.00
 49.37     652.00
 49.47     717.00
 49.57     787.00
 49.67     889.00
 49.77    1097.50
 49.87    1456.00
 49.97    1912.00
 50.07    2287.97
 50.17    2516.00
 50.27    2576.00
 50.37    2270.00
 50.47    1932.00
 50.57    1422.53
 50.67    1040.00
 50.77     861.00
 50.87     719.00
 50.97     700.49
 51.07     615.00
 51.17     621.83
 51.27     584.00
 51.37     576.00
 51.47     563.72
 51.57     522.00
 51.67     524.33
 51.77     570.00
 51.87     547.00
 51.97     495.34
 52.07     550.20
 52.17     514.29
 52.27     568.65
 52.37     534.76
 52.47     557.00
 52.57     530.00
 52.67     573.00
 52.77     603.78
 52.87     642.00
 52.97     687.00
 53.07     880.00
 53.17     844.99
 53.27    1042.00
 53.37    1098.00
 53.47    1218.00
 53.57    1165.00
 53.67    1108.00
 53.77    1004.00
 53.87     844.70
 53.97     715.00
 54.07     646.20
 54.17     608.52
 54.27     549.02
 54.37     547.00
 54.47     560.00
 54.57     583.00
 54.67     527.59
 54.77     567.00
 54.87     541.02
 54.97     551.47
 55.07     524.00
 55.17     576.00
 55.27     571.00
 55.37     551.00
 55.47     587.86
 55.57     596.79
 55.67     527.70
 55.77     620.00
 55.87     597.00
 55.97     655.23
 56.07     691.00
 56.17     744.53
 56.27     900.08
 56.37    1083.00
 56.47    1494.83
 56.57    1742.00
 56.67    2237.49
 56.77    2600.97
 56.87    2587.00
 56.97    2532.20
 57.07    2360.00
 57.17    2095.00
 57.27    1683.00
 57.37    1289.93
 57.47    1041.00
 57.57     857.00
 57.67     815.00
 57.77     713.00
 57.87     653.37
 57.97     670.00
 58.07     707.00
 58.17     705.00
 58.27     800.80
 58.37     849.00
 58.47     984.00
 58.57    1093.00
 58.67    1189.52
 58.77    1413.00
 58.87    1551.00
 58.97    1606.48
 59.07    1591.00
 59.17    1452.03
 59.27    1423.00
 59.37    1409.00
 59.47    1171.00
 59.57    1112.00
 59.67    1172.00
 59.77    1158.00
 59.87    1143.01
 59.97    1332.81
 60.07    1372.74
 60.17    1575.00
 60.27    1576.00
 60.37    1482.00
 60.47    1449.00
 60.57    1235.00
 60.67    1141.00
 60.77     912.00
 60.87     838.25
 60.97     706.00
 61.07     648.00
 61.17     594.00
 61.27     596.86
 61.37     621.00
 61.47     649.67
 61.57     751.00
 61.67     814.00
 61.77     917.00
 61.87    1081.00
 61.97    1249.15
 62.07    1312.00
 62.17    1461.94
 62.27    1414.00
 62.37    1289.00
 62.47    1154.97
 62.57    1063.00
 62.67     857.00
 62.77     757.00
 62.87     686.00
 62.97     684.00
 63.07     541.00
 63.17     563.96
 63.27     525.00
 63.37     540.00
 63.47     585.00
 63.57     595.00
 63.67     601.97
 63.77     619.00
 63.87     639.28
 63.97     672.00
 64.07     734.00
 64.17     744.14
 64.27     784.66
 64.37     905.00
 64.47     942.23
 64.57    1032.00
 64.67    1080.00
 64.77    1079.00
 64.87     904.17
 64.97     937.00
 65.07     910.00
 65.17     743.00
 65.27     716.01
 65.37     682.00
 65.47     669.00
 65.57     603.00
 65.67     629.00
 65.77     580.00
 65.87     587.08
 65.97     580.00
 66.07     574.17
 66.17     554.00
 66.27     532.87
 66.37     542.42
 66.47     536.00
 66.57     556.00
 66.67     577.00
 66.77     544.00
 66.87     590.00
 66.97     567.06
 67.07     625.00
 67.17     683.06
 67.27     778.00
 67.37     880.00
 67.47    1094.45
 67.57    1326.00
 67.67    1433.00
 67.77    1766.00
 67.87    2089.78
 67.97    2295.00
 68.07    2442.00
 68.17    2474.00
 68.27    2271.00
 68.37    2073.00
 68.47    1724.00
 68.57    1549.00
 68.67    1298.00
 68.77    1058.00
 68.87     931.15
 68.97     803.00
 69.07     754.00
 69.17     644.06
 69.27     648.00
 69.37     640.00
 69.47     633.00
 69.57     594.00
 69.67     590.99
 69.77     583.32
 69.87     593.00
 69.97     603.00
 70.07     565.29
 70.17     585.00
 70.27     571.00
 70.37     578.77
 70.47     508.00
 70.57     536.00
 70.67     611.00
 70.77     613.00
 70.87     606.39
 70.97     613.00
 71.07     673.00
 71.17     758.00
 71.27     847.46
 71.37     890.70
 71.47    1062.84
 71.57    1287.00
 71.67    1374.00
 71.77    1544.00
 71.87    1849.26
 71.97    1935.00
 72.07    1897.41
 72.17    1946.42
 72.27    1765.00
 72.37    1683.00
 72.47    1513.00
 72.57    1337.00
 72.67    1209.03
 72.77    1148.77
 72.87     972.35
 72.97     926.81
 73.07     868.98
 73.17     752.00
 73.27     717.00
 73.37     670.06
 73.47     646.00
 73.57     624.00
 73.67     665.95
 73.77     646.45
 73.87     599.00
 73.97     574.00
 74.07     579.86
 74.17     532.97
 74.27     629.00
 74.37     555.02
 74.47     571.14
 74.57     550.09
 74.67     560.64
 74.77     576.16
 74.87     639.00
 74.97     637.00
 75.07     612.00
 75.17     552.00
 75.27     598.00
 75.37     610.00
 75.47     548.26
 75.57     534.25
 75.67     594.55
 75.77     570.26
 75.87     578.00
 75.97     627.06
 76.07     659.00
 76.17     620.00
 76.27     698.00
 76.37     735.05
 76.47     687.00
 76.57     683.47
 76.67     701.42
 76.77     663.00
 76.87     678.00
 76.97     660.44
 77.07     564.00
 77.17     587.42
 77.27     546.86
 77.37     549.00
 77.47     521.00
 77.57     572.41
 77.67     569.15
 77.77     504.00
 77.87     537.25
 77.97     553.00
 78.07     533.00
 78.17     540.00
 78.27     526.00
 78.37     548.88
 78.47     540.00
 78.57     489.00
 78.67     510.00
 78.77     520.00
 78.87     504.35
 78.97     506.00
 79.07     519.00
 79.17     571.48
 79.27     526.00
 79.37     541.00
 79.47     560.20
 79.57     494.92
 79.67     564.00
 79.77     513.00
 79.87     510.00
 79.97     572.00
 80.07     525.10
 80.17     601.51
 80.27     575.00
 80.37     542.00
 80.47     621.00
 80.57     652.51
 80.67     627.29
 80.77     600.62
 80.87     659.00
 80.97     637.00
 81.07     718.00
 81.17     734.39
 81.27     725.00
 81.37     787.06
 81.47     779.00
 81.57     744.00
 81.67     771.00
 81.77     764.64
 81.87     682.83
 81.97     647.00
 82.07     677.00
 82.17     644.00
 82.27     628.00
 82.37     627.00
 82.47     545.00
 82.57     620.00
 82.67     558.28
 82.77     537.86
 82.87     554.75
 82.97     539.11
 83.07     572.00
 83.17     545.00
 83.27     580.00
 83.37     553.13
 83.47     555.00
 83.57     487.00
 83.67     547.14
 83.77     612.93
 83.87     540.00
 83.97     536.00
 84.07     563.14
 84.17     578.00
 84.27     551.00
 84.37     554.00
 84.47     565.75
 84.57     552.00
 84.67     574.00
 84.77     577.70
 84.87     573.00
 84.97     522.00
 85.07     560.91
 85.17     523.36
 85.27     537.00
 85.37     551.00
 85.47     500.44
 85.57     513.00
 85.67     533.00
 85.77     520.00
 85.87     549.00
 85.97     572.00
 86.07     541.17
 86.17     529.00
 86.27     502.97
 86.37     495.00
 86.47     568.00
 86.57     578.00
 86.67     561.67
 86.77     613.00
 86.87     595.00
 86.97     644.05
 87.07     592.20
 87.17     643.00
 87.27     671.00
 87.37     600.89
 87.47     660.00
 87.57     640.42
 87.67     651.00
 87.77     640.37
 87.87     607.43
 87.97     665.00
 88.07     589.00
 88.17     601.00
 88.27     582.00
 88.37     582.91
 88.47     543.00
 88.57     620.00
 88.67     599.00
 88.77     536.77
 88.87     597.95
 88.97     605.00
 89.07     590.00
 89.17     595.16
 89.27     591.00
 89.37     573.00
 89.47     587.92
 89.57     569.00
 89.67     597.11
 89.77     629.73
 89.87     615.00
 89.97     541.13
 90.07     519.00
 90.17     567.37
 90.27     500.00
 90.37     545.00
 90.47     528.00
 90.57     521.00
 90.67     571.00
 90.77     499.00
 90.87     521.92
 90.97     517.49
 91.07     513.00
 91.17     563.52
 91.27     543.55
 91.37     505.00
 91.47     506.09
 91.57     512.00
 91.67     535.26
 91.77     556.89
 91.87     516.00
 91.97     602.00
 92.07     528.00
 92.17     613.04
 92.27     609.00
 92.37     606.00
 92.47     625.44
 92.57     618.11
 92.67     671.00
 92.77     633.00
 92.87     703.00
 92.97     774.00
 93.07     725.65
 93.17     759.00
 93.27     750.24
 93.37     815.65
 93.47     774.00
 93.57     860.00
 93.67     787.38
 93.77     832.00
 93.87     831.00
 93.97     819.00
 94.07     833.00
 94.17     869.00
 94.27     839.86
 94.37     874.00
 94.47     922.18
 94.57     829.67
 94.67     935.39
 94.77     951.00
 94.87     912.00
 94.97     950.00
 95.07     939.00
 95.17     857.00
 95.27     857.65
 95.37     762.80
 95.47     819.00
 95.57     756.00
 95.67     771.00
 95.77     694.00
 95.87     697.99
 95.97     688.00
 96.07     680.80
 96.17     685.58
 96.27     759.00
 96.37     776.01
 96.47     783.33
 96.57     845.25
 96.67     943.00
 96.77     988.00
 96.87    1062.64
 96.97    1183.00
 97.07    1159.12
 97.17    1398.00
 97.27    1352.09
 97.37    1345.82
 97.47    1393.00
 97.57    1446.86
 97.67    1479.00
 97.77    1437.00
 97.87    1366.48
 97.97    1322.00
 98.07    1256.00
 98.17    1117.22
 98.27    1070.95
 98.37    1029.00
 98.47     983.16
 98.57     927.09
 98.67     834.73
 98.77     798.00
 98.87     796.00
 98.97     861.78
 99.07     781.00
 99.17     900.18
 99.27     847.57
 99.37     977.18
 99.47     999.00
 99.57    1142.97
 99.67    1178.00
 99.77    1288.00
 99.87    1401.00
 99.97    1526.33
100.07    1596.51
100.17    1738.00
100.27    1799.36
100.37    1846.87
100.47    1970.00
100.57    2038.00
100.67    2221.00
100.77    2119.00
100.87    2086.00
100.97    2018.00
101.07    1968.00
101.17    1854.00
101.27    1805.00
101.37    1752.00
101.47    1568.70
101.57    1493.92
101.67    1430.67
101.77    1353.00
101.87    1278.00
101.97    1211.98
102.07    1166.00
102.17    1115.00
102.27    1146.00
102.37    1125.00
102.47    1124.00
102.57    1047.00
102.67    1052.00
102.77    1013.00
102.87     989.00
102.97     951.00
103.07     946.00
103.17     847.00
103.27     927.00
103.37     824.46
103.47     855.00
103.57     743.00
103.67     653.86
103.77     654.00
103.87     645.00
103.97     633.53
104.07     610.00
104.17     614.00
104.27     559.00
104.37     567.99
104.47     529.00
104.57     528.00
104.67     563.00
104.77     573.07
104.87     545.23
104.97     567.12
105.07     511.61
105.17     498.13
105.27     540.00
105.37     501.02
105.47     545.47
105.57     574.83
105.67     581.84
105.77     594.00
105.87     569.00
105.97     541.49
106.07     535.70
106.17     533.00
106.27     590.66
106.37     596.00
106.47     671.00
106.57     601.00
106.67     604.00
106.77     656.53
106.87     584.00
106.97     643.57
107.07     661.00
107.17     683.00
107.27     680.85
107.37     669.00
107.47     666.00
107.57     736.75
107.67     634.00
107.77     658.00
107.87     728.45
107.97     644.87
108.07     679.00
108.17     692.80
108.27     692.00
108.37     718.45
108.47     651.00
108.57     666.18
108.67     699.00
108.77     654.64
108.87     682.00
108.97     684.00
109.07     677.00
109.17     639.00
109.27     704.00
109.37     650.00
109.47     682.00
109.57     678.74
109.67     615.00
109.77     612.89
109.87     598.00
109.97     579.92
110.07     563.00
110.17     583.74
110.27     618.00
110.37     578.00
110.47     529.00
110.57     555.20
110.67     591.00
110.77     569.00
110.87     511.57
110.97     498.97
111.07     574.00
111.17     527.55
111.27     571.12
111.37     570.86
111.47     577.53
111.57     564.00
111.67     518.00
111.77     562.00
111.87     582.35
111.97     593.00
112.07     571.62
112.17     564.00
112.27     542.00
112.37     582.45
112.47     568.00
112.57     622.25
112.67     609.14
112.77     649.78
112.87     660.00
112.97     649.00
113.07     665.00
113.17     714.81
113.27     759.92
113.37     756.00
113.47     794.00
113.57     820.00
113.67     870.00
113.77     889.00
113.87    1009.00
113.97    1011.44
114.07    1033.00
114.17    1146.81
114.27    1159.00
114.37    1297.67
114.47    1414.97
114.57    1507.00
114.67    1623.00
114.77    1748.65
114.87    1931.00
114.97    2015.19
115.07    2356.11
115.17    2605.05
115.27    2894.74
115.37    3078.88
115.47    3449.00
115.57    3832.66
115.67    4079.00
115.77    4497.00
115.87    4776.00
115.97    5365.43
116.07    5777.35
116.17    5913.00
116.27    6372.00
116.37    6515.61
116.47    6669.91
116.57    6746.56
116.67    6900.90
116.77    6766.48
116.87    6813.80
116.97    6693.00
117.07    6344.00
117.17    6239.96
117.27    5793.21
117.37    5326.00
117.47    5164.42
117.57    4630.00
117.67    4417.00
117.77    4078.00
117.87    3716.00
117.97    3297.00
118.07    3012.00
118.17    2601.00
118.27    2323.00
118.37    2046.00
118.47    1751.86
118.57    1529.00
118.67    1393.28
118.77    1239.00
118.87    1067.00
118.97    1029.91
119.07     945.00
119.17     832.00
119.27     826.00
119.37     748.00
119.47     754.00
119.57     686.38
119.67     594.00
119.77     668.87
119.87     620.00
119.97     640.92
120.07     547.00
120.17     602.00
120.27     588.99
120.37     537.00
120.47     598.00
120.57     553.52
120.67     583.00
120.77     543.33
120.87     622.00
120.97     604.07
121.07     574.00
121.17     554.00
121.27     531.81
121.37     573.00
121.47     556.82
121.57     576.00
121.67     573.00
121.77     638.75
121.87     614.00
121.97     576.00
122.07     625.00
122.17     612.98
122.27     603.27
122.37     678.00
122.47     659.51
122.57     657.76
122.67     634.52
122.77     659.00
122.87     659.00
122.97     667.23
123.07     652.00
123.17     666.00
123.27     594.00
123.37     645.00
123.47     603.41
123.57     665.24
123.67     627.00
123.77     655.00
123.87     579.69
123.97     638.00
124.07     638.00
124.17     578.00
124.27     622.96
124.37     601.00
124.47     632.00
124.57     611.37
124.67     623.00
124.77     583.00
124.87     566.00
124.97     591.00
