  9.97     624.00
 10.07     585.00
 10.17     549.62
 10.27     602.00
 10.37     548.41
 10.47     580.77
 10.57     614.00
 10.67     608.00
 10.77     558.92
 10.87     557.00
 10.97     600.00
 11.07     612.79
 11.17     580.00
 11.27     568.08
 11.37     615.00
 11.47     600.00
 11.57     569.88
 11.67     636.00
 11.77     575.50
 11.87     565.64
 11.97     668.00
 12.07     645.00
 12.17     647.00
 12.27     676.00
 12.37     648.00
 12.47     621.26
 12.57     625.00
 12.67     619.00
 12.77     520.00
 12.87     582.00
 12.97     527.45
 13.07     605.81
 13.17     534.00
 13.27     527.55
 13.37     566.00
 13.47     567.34
 13.57     564.00
 13.67     581.00
 13.77     559.32
 13.87     539.00
 13.97     607.53
 14.07     591.00
 14.17     617.00
 14.27     534.00
 14.37     575.70
 14.47     529.00
 14.57     554.19
 14.67     557.00
 14.77     500.00
 14.87     574.00
 14.97     570.00
 15.07     545.00
 15.17     548.83
 15.27     539.77
 15.37     575.74
 15.47     537.42
 15.57     543.00
 15.67     604.94
 15.77     536.00
 15.87     569.00
 15.97     600.68
 16.07     565.00
 16.17     548.00
 16.27     588.00
 16.37     552.29
 16.47     568.88
 16.57     543.00
 16.67     542.00
 16.77     571.58
 16.87     567.00
 16.97     562.00
 17.07     535.00
 17.17     575.30
 17.27     477.00
 17.37     567.00
 17.47     556.91
 17.57     552.00
 17.67     569.00
 17.77     571.78
 17.87     552.55
 17.97     551.00
 18.07     556.00
 18.17     570.39
 18.27     596.00
 18.37     513.00
 18.47     567.00
 18.57     544.00
 18.67     552.00
 18.77     535.00
 18.87     547.48
 18.97     565.00
 19.07     542.28
 19.17     525.00
 19.27     549.00
 19.37     563.00
 19.47     558.00
 19.57     559.82
 19.67     580.77
 19.77     539.92
 19.87     562.00
 19.97     559.00
 20.07     513.05
 20.17     546.00
 20.27     529.00
 20.37     571.33
 20.47     526.00
 20.57     524.00
 20.67     544.65
 20.77     543.00
 20.87     543.00
 20.97     579.19
 21.07     538.00
 21.17     526.52
 21.27     550.00
 21.37     511.00
 21.47     513.87
 21.57     586.00
 21.67     547.00
 21.77     546.03
 21.87     528.00
 21.97     523.00
 22.07     544.55
 22.17     556.00
 22.27     495.00
 22.37     549.00
 22.47     560.85
 22.57     517.97
 22.67     572.00
 22.77     508.00
 22.87     567.00
 22.97     562.91
 23.07     539.00
 23.17     546.00
 23.27     550.00
 23.37     520.00
 23.47     570.00
 23.57     587.00
 23.67     543.00
 23.77     532.00
 23.87     546.00
 23.97     567.00
 24.07     530.80
 24.17     578.40
 24.27     593.00
 24.37     560.27
 24.47     592.00
 24.57     609.00
 24.67     575.00
 24.77     614.39
 24.87     666.95
 24.97     603.00
 25.07     565.00
 25.17     569.00
 25.27     575.00
 25.37     553.00
 25.47     573.00
 25.57     574.89
 25.67     567.00
 25.77     586.90
 25.87     584.00
 25.97     546.00
 26.07     563.00
 26.17     584.00
 26.27     527.94
 26.37     541.00
 26.47     558.00
 26.57     558.00
 26.67     563.00
 26.77     525.00
 26.87     573.76
 26.97     548.00
 27.07     582.66
 27.17     542.00
 27.27     535.00
 27.37     574.17
 27.47     521.41
 27.57     572.00
 27.67     545.00
 27.77     602.32
 27.87     623.00
 27.97     623.54
 28.07     752.00
 28.17     892.00
 28.27     972.09
 28.37     860.83
 28.47     826.29
 28.57     720.00
 28.67     684.00
 28.77     678.72
 28.87     797.00
 28.97     819.00
 29.07     787.00
 29.17     738.00
 29.27     672.40
 29.37     557.00
 29.47     608.00
 29.57     554.00
 29.67     580.00
 29.77     541.00
 29.87     527.14
 29.97     526.70
 30.07     507.08
 30.17     575.00
 30.27     604.00
 30.37     551.00
 30.47     537.38
 30.57     516.00
 30.67     520.36
 30.77     523.00
 30.87     619.00
 30.97     648.65
 31.07     627.00
 31.17     575.88
 31.27     614.00
 31.37     540.00
 31.47     551.16
 31.57     519.66
 31.67     538.00
 31.77     505.26
 31.87     494.53
 31.97     565.00
 32.07     530.45
 32.17     546.00
 32.27     531.74
 32.37     565.00
 32.47     542.00
 32.57     569.00
 32.67     504.00
 32.77     504.05
 32.87     567.43
 32.97     548.00
 33.07     534.00
 33.17     559.00
 33.27     520.00
 33.37     536.46
 33.47     561.00
 33.57     578.55
 33.67     675.85
 33.77     734.00
 33.87     835.00
 33.97     988.00
 34.07     999.00
 34.17    1107.00
 34.27     871.00
 34.37     794.00
 34.47     653.00
 34.57     604.00
 34.67     594.00
 34.77     544.32
 34.87     584.79
 34.97     516.72
 35.07     508.86
 35.17     549.47
 35.27     480.23
 35.37     552.07
 35.47     552.00
 35.57     490.00
 35.67     554.00
 35.77     483.00
 35.87     549.00
 35.97     524.65
 36.07     527.00
 36.17     532.00
 36.27     529.25
 36.37     546.03
 36.47     512.00
 36.57     520.00
 36.67     531.00
 36.77     496.26
 36.87     521.00
 36.97     533.00
 37.07     533.87
 37.17     509.00
 37.27     530.65
 37.37     507.60
 37.47     476.00
 37.57     566.00
 37.67     544.96
 37.77     540.35
 37.87     555.00
 37.97     523.00
 38.07     503.00
 38.17     510.96
 38.27     554.21
 38.37     529.00
 38.47     528.00
 38.57     511.00
 38.67     523.00
 38.77     510.00
 38.87     501.00
 38.97     488.00
 39.07     524.56
 39.17     514.00
 39.27     527.11
 39.37     502.00
 39.47     546.83
 39.57     529.00
 39.67     534.00
 39.77     516.00
 39.87     508.00
 39.97     523.49
 40.07     511.00
 40.17     530.00
 40.27     490.00
 40.37     499.52
 40.47     485.69
 40.57     467.00
 40.67     497.00
 40.77     501.00
 40.87     538.25
 40.97     513.53
 41.07     472.00
 41.17     472.00
 41.27     516.00
 41.37     478.00
 41.47     521.62
 41.57     441.00
 41.67     470.00
 41.77     497.00
 41.87     482.00
 41.97     510.00
 42.07     527.69
 42.17     559.62
 42.27     560.77
 42.37     557.00
 42.47     528.00
 42.57     549.00
 42.67     586.00
 42.77     559.00
 42.87     575.00
 42.97     588.00
 43.07     574.00
 43.17     546.00
 43.27     529.00
 43.37     546.98
 43.47     495.00
 43.57     518.00
 43.67     491.00
 43.77     473.00
 43.87     492.49
 43.97     494.00
 44.07     521.00
 44.17     469.00
 44.27     499.00
 44.37     531.87
 44.47     523.49
 44.57     509.09
 44.67     505.41
 44.77     518.00
 44.87     499.00
 44.97     534.40
 45.07     470.30
 45.17     481.00
 45.27     484.07
 45.37     514.00
 45.47     464.37
 45.57     550.00
 45.67     543.00
 45.77     511.00
 45.87     498.29
 45.97     466.00
 46.07     530.00
 46.17     509.83
 46.27     500.00
 46.37     516.00
 46.47     498.00
 46.57     495.00
 46.67     507.00
 46.77     527.00
 46.87     506.00
 46.97     480.00
 47.07     470.00
 47.17     539.00
 47.27     495.00
 47.37     508.62
 47.47     574.36
 47.57     526.00
 47.67     534.27
 47.77     578.00
 47.87     584.16
 47.97     584.00
 48.07     584.00
 48.17     602.47
 48.27     585.25
 48.37     550.00
 48.47     543.00
 48.57     502.62
 48.67     495.28
 48.77     520.00
 48.87     523.57
 48.97     513.72
 49.07     530.00
 49.17     509.00
 49.27     556.00
 49.37     551.92
 49.47     596.00
 49.57     654.00
 49.67     825.38
 49.77     985.00
 49.87    1325.27
 49.97    1590.00
 50.07    2075.21
 50.17    2346.00
 50.27    2482.00
 50.37    2393.81
 50.47    1924.35
 50.57    1632.00
 50.67    1233.00
 50.77     939.42
 50.87     795.64
 50.97     660.11
 51.07     634.94
 51.17     611.00
 51.27     645.00
 51.37     561.00
 51.47     598.00
 51.57     589.00
 51.67     584.57
 51.77     572.00
 51.87     506.00
 51.97     548.00
 52.07     505.00
 52.17     570.00
 52.27     547.27
 52.37     601.00
 52.47     537.05
 52.57     579.46
 52.67     598.75
 52.77     658.00
 52.87     636.00
 52.97     717.27
 53.07     732.00
 53.17     826.00
 53.27    1019.00
 53.37    1136.86
 53.47    1166.24
 53.57    1224.75
 53.67    1205.00
 53.77    1025.00
 53.87     906.39
 53.97     902.05
 54.07     750.00
 54.17     645.00
 54.27     608.60
 54.37     595.00
 54.47     553.46
 54.57     572.00
 54.67     587.00
 54.77     546.00
 54.87     616.00
 54.97     528.00
 55.07     529.00
 55.17     582.00
 55.27     572.23
 55.37     563.73
 55.47     525.54
 55.57     533.46
 55.67     565.00
 55.77     608.49
 55.87     607.00
 55.97     642.00
 56.07     683.00
 56.17     769.00
 56.27     862.30
 56.37    1055.00
 56.47    1358.00
 56.57    1622.00
 56.67    1904.00
 56.77    2342.00
 56.87    2476.00
 56.97    2543.97
 57.07    2410.28
 57.17    2083.00
 57.27    1866.05
 57.37    1455.00
 57.47    1238.00
 57.57    1039.16
 57.67     911.00
 57.77     788.00
 57.87     757.00
 57.97     727.00
 58.07     697.00
 58.17     688.98
 58.27     737.38
 58.37     805.00
 58.47     827.81
 58.57     929.00
 58.67    1005.00
 58.77    1094.00
 58.87    1253.04
 58.97    1237.43
 59.07    1250.12
 59.17    1298.15
 59.27    1316.00
 59.37    1226.12
 59.47    1212.00
 59.57    1238.00
 59.67    1198.00
 59.77    1152.00
 59.87    1188.13
 59.97    1334.00
 60.07    1374.56
 60.17    1536.00
 60.27    1581.56
 60.37    1467.00
 60.47    1514.00
 60.57    1268.56
 60.67    1096.57
 60.77    1004.00
 60.87     871.00
 60.97     755.96
 61.07     674.00
 61.17     712.00
 61.27     645.00
 61.37     617.50
 61.47     682.00
 61.57     732.00
 61.67     847.00
 61.77     949.24
 61.87    1004.00
 61.97    1101.00
 62.07    1244.00
 62.17    1373.00
 62.27    1335.00
 62.37    1388.63
 62.47    1204.00
 62.57    1070.28
 62.67     932.68
 62.77     858.00
 62.87     765.00
 62.97     655.00
 63.07     657.00
 63.17     629.00
 63.27     586.00
 63.37     610.17
 63.47     640.00
 63.57     550.00
 63.67     567.04
 63.77     614.00
 63.87     636.00
 63.97     681.00
 64.07     644.04
 64.17     781.00
 64.27     840.35
 64.37     829.03
 64.47     919.00
 64.57     933.00
 64.67    1018.66
 64.77    1017.00
 64.87     986.00
 64.97     984.00
 65.07     864.00
 65.17     833.00
 65.27     783.38
 65.37     726.46
 65.47     693.88
 65.57     669.34
 65.67     612.61
 65.77     619.91
 65.87     585.05
 65.97     589.83
 66.07     572.47
 66.17     509.00
 66.27     532.44
 66.37     556.00
 66.47     590.00
 66.57     566.76
 66.67     526.00
 66.77     627.89
 66.87     595.01
 66.97     611.00
 67.07     677.72
 67.17     671.00
 67.27     693.00
 67.37     861.00
 67.47     945.00
 67.57    1126.55
 67.67    1433.00
 67.77    1647.00
 67.87    1950.00
 67.97    2149.43
 68.07    2201.16
 68.17    2282.45
 68.27    2279.89
 68.37    2206.00
 68.47    1979.00
 68.57    1695.29
 68.67    1434.00
 68.77    1224.00
 68.87    1034.00
 68.97     882.00
 69.07     818.64
 69.17     704.80
 69.27     612.47
 69.37     651.00
 69.47     626.00
 69.57     580.00
 69.67     572.34
 69.77     634.00
 69.87     551.05
 69.97     583.00
 70.07     521.00
 70.17     572.00
 70.27     612.00
 70.37     611.00
 70.47     530.40
 70.57     531.73
 70.67     602.00
 70.77     578.00
 70.87     654.00
 70.97     628.00
 71.07     628.00
 71.17     700.00
 71.27     797.87
 71.37     904.02
 71.47    1031.70
 71.57    1121.00
 71.67    1314.00
 71.77    1574.19
 71.87    1681.00
 71.97    1826.00
 72.07    1874.00
 72.17    1831.00
 72.27    1867.00
 72.37    1766.00
 72.47    1495.02
 72.57    1425.00
 72.67    1259.00
 72.77    1013.00
 72.87     956.00
 72.97     852.00
 73.07     839.80
 73.17     776.50
 73.27     740.96
 73.37     687.65
 73.47     621.00
 73.57     582.30
 73.67     570.00
 73.77     607.00
 73.87     603.79
 73.97     626.57
 74.07     600.16
 74.17     605.51
 74.27     599.00
 74.37     597.00
 74.47     602.34
 74.57     564.92
 74.67     604.84
 74.77     526.24
 74.87     573.42
 74.97     639.00
 75.07     550.00
 75.17     578.00
 75.27     507.71
 75.37     594.00
 75.47     580.00
 75.57     532.00
 75.67     522.87
 75.77     529.00
 75.87     651.00
 75.97     545.00
 76.07     646.00
 76.17     655.00
 76.27     675.00
 76.37     613.00
 76.47     682.00
 76.57     727.90
 76.67     735.95
 76.77     692.75
 76.87     680.00
 76.97     649.18
 77.07     650.00
 77.17     543.00
 77.27     589.00
 77.37     624.58
 77.47     559.00
 77.57     543.00
 77.67     558.00
 77.77     507.70
 77.87     483.00
 77.97     537.00
 78.07     533.80
 78.17     537.72
 78.27     497.00
 78.37     471.00
 78.47     528.00
 78.57     544.23
 78.67     518.32
 78.77     553.00
 78.87     524.62
 78.97     473.00
 79.07     506.00
 79.17     490.52
 79.27     504.00
 79.37     509.00
 79.47     532.00
 79.57     471.00
 79.67     478.00
 79.77     545.00
 79.87     548.00
 79.97     501.00
 80.07     546.00
 80.17     543.00
 80.27     547.66
 80.37     550.00
 80.47     599.00
 80.57     582.00
 80.67     597.00
 80.77     623.00
 80.87     628.72
 80.97     711.00
 81.07     723.06
 81.17     664.00
 81.27     740.58
 81.37     732.58
 81.47     717.00
 81.57     753.00
 81.67     712.00
 81.77     713.00
 81.87     764.00
 81.97     652.68
 82.07     642.68
 82.17     661.00
 82.27     675.00
 82.37     667.52
 82.47     604.00
 82.57     598.81
 82.67     558.00
 82.77     594.26
 82.87     559.00
 82.97     488.00
 83.07     554.00
 83.17     536.00
 83.27     521.00
 83.37     525.00
 83.47     515.00
 83.57     530.46
 83.67     503.00
 83.77     533.00
 83.87     529.00
 83.97     571.00
 84.07     573.00
 84.17     549.00
 84.27     517.00
 84.37     521.64
 84.47     594.00
 84.57     528.00
 84.67     559.00
 84.77     553.80
 84.87     552.00
 84.97     544.00
 85.07     516.00
 85.17     543.00
 85.27     523.00
 85.37     524.39
 85.47     510.00
 85.57     527.00
 85.67     536.48
 85.77     524.27
 85.87     521.03
 85.97     506.00
 86.07     518.00
 86.17     473.79
 86.27     499.56
 86.37     487.66
 86.47     550.00
 86.57     552.00
 86.67     572.00
 86.77     583.00
 86.87     537.00
 86.97     581.30
 87.07     544.37
 87.17     556.31
 87.27     625.00
 87.37     637.00
 87.47     668.00
 87.57     582.01
 87.67     609.00
 87.77     619.00
 87.87     616.00
 87.97     583.18
 88.07     638.00
 88.17     564.00
 88.27     588.00
 88.37     519.44
 88.47     519.46
 88.57     521.20
 88.67     561.24
 88.77     583.00
 88.87     577.00
 88.97     553.06
 89.07     574.85
 89.17     604.65
 89.27     543.97
 89.37     622.99
 89.47     580.00
 89.57     609.00
 89.67     579.00
 89.77     538.07
 89.87     578.00
 89.97     547.18
 90.07     550.00
 90.17     506.00
 90.27     544.00
 90.37     493.00
 90.47     552.37
 90.57     538.88
 90.67     466.00
 90.77     534.00
 90.87     481.12
 90.97     542.00
 91.07     499.00
 91.17     502.00
 91.27     521.00
 91.37     539.00
 91.47     502.97
 91.57     546.00
 91.67     508.00
 91.77     535.54
 91.87     535.36
 91.97     535.97
 92.07     525.24
 92.17     572.00
 92.27     554.00
 92.37     521.00
 92.47     597.00
 92.57     581.00
 92.67     631.00
 92.77     638.00
 92.87     670.00
 92.97     674.00
 93.07     737.00
 93.17     711.00
 93.27     698.00
 93.37     762.60
 93.47     812.28
 93.57     753.11
 93.67     763.08
 93.77     757.94
 93.87     760.00
 93.97     805.00
 94.07     839.00
 94.17     790.44
 94.27     848.00
 94.37     828.00
 94.47     862.00
 94.57     931.00
 94.67     867.00
 94.77     832.49
 94.87     941.00
 94.97     908.62
 95.07     821.22
 95.17     831.00
 95.27     844.24
 95.37     857.00
 95.47     809.82
 95.57     775.00
 95.67     753.00
 95.77     759.00
 95.87     744.00
 95.97     688.00
 96.07     688.00
 96.17     674.42
 96.27     722.18
 96.37     685.60
 96.47     772.30
 96.57     806.00
 96.67     891.00
 96.77     891.98
 96.87     971.00
 96.97    1124.27
 97.07    1201.00
 97.17    1167.00
 97.27    1281.00
 97.37    1267.88
 97.47    1347.00
 97.57    1363.00
 97.67    1364.62
 97.77    1347.42
 97.87    1425.06
 97.97    1389.00
 98.07    1326.08
 98.17    1255.00
 98.27    1152.00
 98.37    1150.00
 98.47    1033.00
 98.57     947.93
 98.67     954.00
 98.77     952.75
 98.87     830.52
 98.97     853.76
 99.07     855.00
 99.17     845.00
 99.27     895.00
 99.37     885.32
 99.47     960.00
 99.57    1010.00
 99.67    1113.56
 99.77    1190.00
 99.87    1285.00
 99.97    1337.68
100.07    1491.00
100.17    1608.00
100.27    1630.37
100.37    1731.47
100.47    1942.00
100.57    1965.00
100.67    1971.00
100.77    1945.72
100.87    2084.32
100.97    1999.00
101.07    2062.00
101.17    1867.79
101.27    1846.00
101.37    1715.00
101.47    1737.00
101.57    1556.87
101.67    1474.00
101.77    1481.88
101.87    1402.00
101.97    1323.00
102.07    1270.00
102.17    1240.00
102.27    1224.64
102.37    1144.00
102.47    1129.00
102.57    1097.37
102.67    1144.00
102.77    1069.28
102.87    1084.00
102.97     967.00
103.07     960.52
103.17     925.00
103.27     916.16
103.37     882.00
103.47     820.00
103.57     871.00
103.67     769.00
103.77     732.00
103.87     677.51
103.97     685.00
104.07     650.00
104.17     595.52
104.27     585.30
104.37     577.19
104.47     574.00
104.57     590.00
104.67     532.57
104.77     529.00
104.87     564.77
104.97     538.00
105.07     544.00
105.17     507.80
105.27     558.00
105.37     489.74
105.47     555.00
105.57     542.32
105.67     562.00
105.77     550.89
105.87     511.51
105.97     548.01
106.07     581.00
106.17     520.00
106.27     596.00
106.37     616.35
106.47     604.26
106.57     652.01
106.67     615.71
106.77     644.98
106.87     606.00
106.97     675.30
107.07     627.00
107.17     690.71
107.27     656.00
107.37     669.13
107.47     694.00
107.57     649.00
107.67     681.00
107.77     664.00
107.87     665.00
107.97     679.00
108.07     732.31
108.17     635.00
108.27     685.00
108.37     628.00
108.47     654.00
108.57     664.00
108.67     695.29
108.77     681.06
108.87     718.00
108.97     674.00
109.07     681.00
109.17     652.68
109.27     671.20
109.37     648.00
109.47     693.11
109.57     663.00
109.67     662.00
109.77     650.00
109.87     576.07
109.97     602.00
110.07     628.00
110.17     591.62
110.27     566.00
110.37     610.00
110.47     584.00
110.57     538.33
110.67     577.00
110.77     560.00
110.87     593.00
110.97     538.00
111.07     554.00
111.17     520.00
111.27     534.00
111.37     529.13
111.47     538.00
111.57     532.00
111.67     537.00
111.77     523.00
111.87     562.56
111.97     557.05
112.07     559.58
112.17     517.43
112.27     583.00
112.37     552.00
112.47     587.00
112.57     558.13
112.67     548.00
112.77     580.00
112.87     588.00
112.97     607.27
113.07     589.00
113.17     665.78
113.27     598.85
113.37     675.73
113.47     637.00
113.57     608.00
113.67     701.00
113.77     768.47
113.87     733.00
113.97     781.00
114.07     795.00
114.17     887.00
114.27     862.00
114.37     942.00
114.47    1074.00
114.57    1097.14
114.67    1336.00
114.77    1459.00
114.87    1649.00
114.97    1668.31
115.07    1969.00
115.17    2182.52
115.27    2467.14
115.37    2688.25
115.47    2936.79
115.57    3367.13
115.67    3595.41
115.77    3987.09
115.87    4380.96
115.97    4729.95
116.07    5142.00
116.17    5483.50
116.27    5817.00
116.37    6030.05
116.47    6480.00
116.57    6664.22
116.67    6818.00
116.77    6813.00
116.87    6705.29
116.97    6587.64
117.07    6555.19
117.17    6451.16
117.27    6190.00
117.37    5974.94
117.47    5648.90
117.57    5120.44
117.67    4783.00
117.77    4451.00
117.87    4217.18
117.97    3816.00
118.07    3482.00
118.17    3179.00
118.27    2805.00
118.37    2532.00
118.47    2261.00
118.57    2026.97
118.67    1787.59
118.77    1668.66
118.87    1417.00
118.97    1258.00
119.07    1141.00
119.17    1044.00
119.27     961.00
119.37     986.00
119.47     874.00
119.57     817.55
119.67     838.00
119.77     700.00
119.87     657.00
119.97     691.41
120.07     607.00
120.17     631.00
120.27     649.00
120.37     555.00
120.47     625.00
120.57     629.10
120.67     621.94
120.77     568.00
120.87     583.66
120.97     580.00
121.07     554.00
121.17     578.00
121.27     572.00
121.37     560.34
121.47     615.00
121.57     578.03
121.67     573.78
121.77     609.33
121.87     628.83
121.97     596.10
122.07     625.00
122.17     635.00
122.27     630.00
122.37     601.00
122.47     570.00
122.57     640.00
122.67     600.00
122.77     628.00
122.87     653.00
122.97     582.12
123.07     654.84
123.17     634.00
123.27     661.00
123.37     646.00
123.47     627.00
123.57     604.00
123.67     627.00
123.77     584.00
123.87     654.00
123.97     622.74
124.07     592.00
124.17     600.00
124.27     573.00
124.37     616.00
124.47     590.00
124.57     608.00
124.67     562.45
124.77     557.00
124.87     538.37
124.97     616.00
