  9.97     571.00
 10.07     581.00
 10.17     564.00
 10.27     581.00
 10.37     586.00
 10.47     569.00
 10.57     580.00
 10.67     578.01
 10.77     638.00
 10.87     604.00
 10.97     536.91
 11.07     600.00
 11.17     597.68
 11.27     521.10
 11.37     620.00
 11.47     560.08
 11.57     573.00
 11.67     621.00
 11.77     619.00
 11.87     640.00
 11.97     649.00
 12.07     656.00
 12.17     682.00
 12.27     698.34
 12.37     634.00
 12.47     629.17
 12.57     609.00
 12.67     562.87
 12.77     531.34
 12.87     609.24
 12.97     571.57
 13.07     528.00
 13.17     577.00
 13.27     540.00
 13.37     575.00
 13.47     591.94
 13.57     548.25
 13.67     554.00
 13.77     559.00
 13.87     570.75
 13.97     583.66
 14.07     562.41
 14.17     536.00
 14.27     486.00
 14.37     574.07
 14.47     552.00
 14.57     531.57
 14.67     560.00
 14.77     574.00
 14.87     569.00
 14.97     527.00
 15.07     580.55
 15.17     575.00
 15.27     613.00
 15.37     527.00
 15.47     525.79
 15.57     564.00
 15.67     529.83
 15.77     576.70
 15.87     556.00
 15.97     525.00
 16.07     604.65
 16.17     585.30
 16.27     575.00
 16.37     507.00
 16.47     563.00
 16.57     565.11
 16.67     587.85
 16.77     543.00
 16.87     561.00
 16.97     568.00
 17.07     606.32
 17.17     560.05
 17.27     568.00
 17.37     606.15
 17.47     540.33
 17.57     563.05
 17.67     580.28
 17.77     521.59
 17.87     587.64
 17.97     557.00
 18.07     544.73
 18.17     530.37
 18.27     579.00
 18.37     529.00
 18.47     539.36
 18.57     604.69
 18.67     598.67
 18.77     577.00
 18.87     542.00
 18.97     575.70
 19.07     523.00
 19.17     575.00
 19.27     524.40
 19.37     528.48
 19.47     555.00
 19.57     580.70
 19.67     526.00
 19.77     558.00
 19.87     546.42
 19.97     534.38
 20.07     538.19
 20.17     537.00
 20.27     558.39
 20.37     529.00
 20.47     563.85
 20.57     553.00
 20.67     516.89
 20.77     569.00
 20.87     587.00
 20.97     542.15
 21.07     548.00
 21.17     588.00
 21.27     524.90
 21.37     578.00
 21.47     517.00
 21.57     534.00
 21.67     598.50
 21.77     530.88
 21.87     587.38
 21.97     577.00
 22.07     575.42
 22.17     578.51
 22.27     553.86
 22.37     573.00
 22.47     558.00
 22.57     539.27
 22.67     537.00
 22.77     595.72
 22.87     511.50
 22.97     542.00
 23.07     556.07
 23.17     573.78
 23.27     522.00
 23.37     526.44
 23.47     537.00
 23.57     511.72
 23.67     587.00
 23.77     557.00
 23.87     553.00
 23.97     550.66
 24.07     560.00
 24.17     550.00
 24.27     573.65
 24.37     531.94
 24.47     586.00
 24.57     549.53
 24.67     628.00
 24.77     627.00
 24.87     613.00
 24.97     622.00
 25.07     652.00
 25.17     544.71
 25.27     592.00
 25.37     581.46
 25.47     530.95
 25.57     583.96
 25.67     529.00
 25.77     576.00
 25.87     529.51
 25.97     569.00
 26.07     562.00
 26.17     557.00
 26.27     582.48
 26.37     542.24
 26.47     574.00
 26.57     567.00
 26.67     552.00
 26.77     554.00
 26.87     567.00
 26.97     595.00
 27.07     549.00
 27.17     508.64
 27.27     596.00
 27.37     540.00
 27.47     580.00
 27.57     547.00
 27.67     595.00
 27.77     589.00
 27.87     547.00
 27.97     696.00
 28.07     716.93
 28.17     812.49
 28.27     871.00
 28.37     918.56
 28.47     830.00
 28.57     765.00
 28.67     724.00
 28.77     758.00
 28.87     805.00
 28.97     816.00
 29.07     817.00
 29.17     751.41
 29.27     707.00
 29.37     667.62
 29.47     638.00
 29.57     567.77
 29.67     608.00
 29.77     571.00
 29.87     563.00
 29.97     564.00
 30.07     558.00
 30.17     611.00
 30.27     498.30
 30.37     538.00
 30.47     585.25
 30.57     603.00
 30.67     587.00
 30.77     592.00
 30.87     596.00
 30.97     634.00
 31.07     606.00
 31.17     603.00
 31.27     590.00
 31.37     594.01
 31.47     582.00
 31.57     587.00
 31.67     552.00
 31.77     487.29
 31.87     511.08
 31.97     545.00
 32.07     544.21
 32.17     545.00
 32.27     540.00
 32.37     600.00
 32.47     547.00
 32.57     559.00
 32.67     520.00
 32.77     560.72
 32.87     592.00
 32.97     550.41
 33.07     530.00
 33.17     575.00
 33.27     542.15
 33.37     510.00
 33.47     575.00
 33.57     573.00
 33.67     615.00
 33.77     656.67
 33.87     752.00
 33.97     953.78
 34.07    1007.00
 34.17    1037.49
 34.27     986.00
 34.37     850.00
 34.47     748.00
 34.57     652.28
 34.67     618.00
 34.77     585.50
 34.87     539.00
 34.97     554.88
 35.07     528.64
 35.17     537.00
 35.27     519.00
 35.37     530.00
 35.47     507.00
 35.57     492.00
 35.67     554.00
 35.77     496.00
 35.87     468.00
 35.97     515.00
 36.07     510.00
 36.17     489.49
 36.27     583.00
 36.37     495.95
 36.47     499.00
 36.57     515.24
 36.67     496.00
 36.77     506.00
 36.87     550.22
 36.97     511.00
 37.07     500.00
 37.17     515.00
 37.27     470.36
 37.37     506.00
 37.47     489.00
 37.57     486.00
 37.67     494.52
 37.77     510.00
 37.87     527.00
 37.97     524.00
 38.07     508.87
 38.17     516.00
 38.27     511.00
 38.37     470.71
 38.47     510.00
 38.57     485.00
 38.67     487.26
 38.77     482.00
 38.87     495.95
 38.97     475.00
 39.07     537.61
 39.17     476.00
 39.27     479.10
 39.37     493.00
 39.47     475.70
 39.57     523.82
 39.67     519.00
 39.77     527.60
 39.87     483.00
 39.97     494.41
 40.07     464.06
 40.17     445.00
 40.27     474.56
 40.37     511.00
 40.47     481.00
 40.57     480.00
 40.67     446.00
 40.77     490.50
 40.87     471.95
 40.97     473.00
 41.07     492.37
 41.17     486.00
 41.27     522.35
 41.37     473.00
 41.47     497.63
 41.57     492.00
 41.67     525.17
 41.77     458.63
 41.87     535.88
 41.97     539.00
 42.07     539.00
 42.17     518.91
 42.27     506.43
 42.37     540.00
 42.47     523.00
 42.57     516.00
 42.67     582.00
 42.77     591.62
 42.87     567.15
 42.97     553.00
 43.07     531.86
 43.17     555.64
 43.27     548.00
 43.37     517.00
 43.47     519.05
 43.57     540.00
 43.67     499.70
 43.77     496.73
 43.87     465.69
 43.97     496.76
 44.07     516.00
 44.17     439.00
 44.27     465.34
 44.37     445.00
 44.47     500.00
 44.57     492.00
 44.67     493.00
 44.77     453.00
 44.87     482.00
 44.97     498.69
 45.07     489.07
 45.17     489.00
 45.27     491.32
 45.37     498.00
 45.47     493.00
 45.57     479.00
 45.67     477.00
 45.77     518.00
 45.87     498.99
 45.97     516.01
 46.07     491.06
 46.17     456.54
 46.27     487.00
 46.37     486.92
 46.47     510.78
 46.57     487.00
 46.67     518.41
 46.77     524.00
 46.87     455.46
 46.97     535.59
 47.07     489.00
 47.17     527.83
 47.27     537.00
 47.37     509.00
 47.47     512.00
 47.57     523.61
 47.67     576.00
 47.77     603.82
 47.87     564.11
 47.97     575.40
 48.07     607.83
 48.17     606.72
 48.27     562.00
 48.37     518.40
 48.47     540.00
 48.57     563.63
 48.67     467.00
 48.77     499.19
 48.87     520.00
 48.97     503.00
 49.07     562.00
 49.17     538.00
 49.27     516.36
 49.37     562.72
 49.47     632.98
 49.57     629.02
 49.67     726.00
 49.77     851.21
 49.87    1074.00
 49.97    1402.26
 50.07    1850.89
 50.17    2042.00
 50.27    2317.00
 50.37    2266.73
 50.47    2074.00
 50.57    1838.00
 50.67    1347.90
 50.77    1026.00
 50.87     904.00
 50.97     733.61
 51.07     695.63
 51.17     633.00
 51.27     657.04
 51.37     590.00
 51.47     592.00
 51.57     553.00
 51.67     564.96
 51.77     541.00
 51.87     557.00
 51.97     497.00
 52.07     497.51
 52.17     546.11
 52.27     530.27
 52.37     595.00
 52.47     540.00
 52.57     556.00
 52.67     528.80
 52.77     586.57
 52.87     578.00
 52.97     603.51
 53.07     651.57
 53.17     842.00
 53.27     904.00
 53.37     946.84
 53.47    1130.00
 53.57    1132.28
 53.67    1162.38
 53.77    1100.00
 53.87    1067.00
 53.97     924.54
 54.07     769.00
 54.17     744.11
 54.27     609.53
 54.37     594.00
 54.47     560.00
 54.57     547.00
 54.67     553.00
 54.77     520.83
 54.87     544.00
 54.97     559.00
 55.07     577.00
 55.17     531.00
 55.27     558.00
 55.37     571.00
 55.47     536.00
 55.57     548.00
 55.67     600.68
 55.77     549.00
 55.87     567.00
 55.97     589.84
 56.07     638.00
 56.17     684.00
 56.27     787.11
 56.37     920.00
 56.47    1136.53
 56.57    1427.00
 56.67    1759.00
 56.77    2089.34
 56.87    2370.00
 56.97    2542.98
 57.07    2514.00
 57.17    2353.00
 57.27    1996.24
 57.37    1745.79
 57.47    1373.55
 57.57    1158.20
 57.67     971.65
 57.77     822.00
 57.87     769.00
 57.97     711.00
 58.07     694.12
 58.17     680.00
 58.27     728.00
 58.37     704.18
 58.47     852.21
 58.57     840.00
 58.67     988.65
 58.77    1051.00
 58.87    1083.32
 58.97    1167.94
 59.07    1299.00
 59.17    1365.00
 59.27    1286.53
 59.37    1282.02
 59.47    1194.40
 59.57    1224.00
 59.67    1110.00
 59.77    1149.11
 59.87    1216.00
 59.97    1209.00
 60.07    1393.00
 60.17    1431.00
 60.27    1530.00
 60.37    1600.00
 60.47    1479.62
 60.57    1335.00
 60.67    1265.33
 60.77    1070.41
 60.87    1013.92
 60.97     844.00
 61.07     767.24
 61.17     738.00
 61.27     646.00
 61.37     702.00
 61.47     668.00
 61.57     714.00
 61.67     810.00
 61.77     818.00
 61.87     984.00
 61.97    1057.00
 62.07    1236.00
 62.17    1300.88
 62.27    1297.31
 62.37    1369.21
 62.47    1218.00
 62.57    1087.00
 62.67    1008.87
 62.77     977.95
 62.87     777.00
 62.97     670.00
 63.07     625.00
 63.17     620.00
 63.27     604.00
 63.37     580.00
 63.47     555.00
 63.57     551.00
 63.67     592.00
 63.77     619.00
 63.87     613.00
 63.97     653.00
 64.07     673.00
 64.17     671.00
 64.27     771.00
 64.37     819.00
 64.47     840.00
 64.57     941.00
 64.67    1013.60
 64.77     952.00
 64.87    1069.00
 64.97    1005.00
 65.07     903.00
 65.17     844.00
 65.27     825.00
 65.37     737.00
 65.47     666.00
 65.57     655.00
 65.67     677.00
 65.77     621.00
 65.87     592.00
 65.97     548.00
 66.07     565.00
 66.17     519.00
 66.27     555.00
 66.37     576.00
 66.47     519.00
 66.57     569.00
 66.67     560.00
 66.77     591.00
 66.87     567.00
 66.97     610.00
 67.07     645.00
 67.17     648.00
 67.27     704.00
 67.37     776.00
 67.47     899.81
 67.57    1030.00
 67.67    1285.00
 67.77    1508.00
 67.87    1644.61
 67.97    1958.13
 68.07    2179.00
 68.17    2296.00
 68.27    2380.27
 68.37    2259.98
 68.47    2058.00
 68.57    1875.00
 68.67    1680.00
 68.77    1427.00
 68.87    1179.34
 68.97    1032.00
 69.07     849.00
 69.17     746.00
 69.27     639.96
 69.37     635.00
 69.47     640.00
 69.57     607.00
 69.67     558.00
 69.77     542.00
 69.87     577.11
 69.97     537.00
 70.07     564.00
 70.17     592.00
 70.27     557.67
 70.37     614.00
 70.47     588.00
 70.57     645.00
 70.67     597.23
 70.77     561.00
 70.87     604.81
 70.97     623.00
 71.07     640.00
 71.17     735.14
 71.27     768.00
 71.37     758.00
 71.47     885.00
 71.57    1031.00
 71.67    1149.00
 71.77    1419.00
 71.87    1480.66
 71.97    1696.16
 72.07    1869.00
 72.17    1891.00
 72.27    1796.00
 72.37    1814.00
 72.47    1629.00
 72.57    1523.00
 72.67    1351.90
 72.77    1161.77
 72.87     977.51
 72.97     861.00
 73.07     786.00
 73.17     702.38
 73.27     749.87
 73.37     623.53
 73.47     634.00
 73.57     603.00
 73.67     644.00
 73.77     581.40
 73.87     607.43
 73.97     604.40
 74.07     588.00
 74.17     617.00
 74.27     589.00
 74.37     578.00
 74.47     571.12
 74.57     642.00
 74.67     630.00
 74.77     603.00
 74.87     609.00
 74.97     654.00
 75.07     594.12
 75.17     601.00
 75.27     569.23
 75.37     550.00
 75.47     574.00
 75.57     546.00
 75.67     562.00
 75.77     525.91
 75.87     545.00
 75.97     598.00
 76.07     630.00
 76.17     569.00
 76.27     663.54
 76.37     664.00
 76.47     705.00
 76.57     724.00
 76.67     648.00
 76.77     721.00
 76.87     712.00
 76.97     735.00
 77.07     609.00
 77.17     627.00
 77.27     614.00
 77.37     557.00
 77.47     578.00
 77.57     549.00
 77.67     554.80
 77.77     539.79
 77.87     519.07
 77.97     512.00
 78.07     522.69
 78.17     504.74
 78.27     512.00
 78.37     517.00
 78.47     504.00
 78.57     506.00
 78.67     517.00
 78.77     464.00
 78.87     521.00
 78.97     482.24
 79.07     507.00
 79.17     549.00
 79.27     509.00
 79.37     538.44
 79.47     487.00
 79.57     525.00
 79.67     534.46
 79.77     544.00
 79.87     550.68
 79.97     544.00
 80.07     543.97
 80.17     554.00
 80.27     568.00
 80.37     532.00
 80.47     531.00
 80.57     549.00
 80.67     544.00
 80.77     622.00
 80.87     638.11
 80.97     665.00
 81.07     714.69
 81.17     699.00
 81.27     706.57
 81.37     709.00
 81.47     780.64
 81.57     746.00
 81.67     771.00
 81.77     778.65
 81.87     700.00
 81.97     706.00
 82.07     671.00
 82.17     734.00
 82.27     689.00
 82.37     624.00
 82.47     576.00
 82.57     574.00
 82.67     589.00
 82.77     553.00
 82.87     537.48
 82.97     529.00
 83.07     505.00
 83.17     541.00
 83.27     534.00
 83.37     504.00
 83.47     505.78
 83.57     505.17
 83.67     553.95
 83.77     549.00
 83.87     552.00
 83.97     556.00
 84.07     555.00
 84.17     590.47
 84.27     541.00
 84.37     593.46
 84.47     566.12
 84.57     534.11
 84.67     506.45
 84.77     532.00
 84.87     527.75
 84.97     511.00
 85.07     468.00
 85.17     486.00
 85.27     509.23
 85.37     517.00
 85.47     529.35
 85.57     521.00
 85.67     502.00
 85.77     484.17
 85.87     509.43
 85.97     492.00
 86.07     525.49
 86.17     503.00
 86.27     468.90
 86.37     508.82
 86.47     519.00
 86.57     497.87
 86.67     516.03
 86.77     527.50
 86.87     493.00
 86.97     592.36
 87.07     565.71
 87.17     599.00
 87.27     605.00
 87.37     570.00
 87.47     631.00
 87.57     615.48
 87.67     586.00
 87.77     608.65
 87.87     563.94
 87.97     598.07
 88.07     570.08
 88.17     589.89
 88.27     594.00
 88.37     589.00
 88.47     525.00
 88.57     593.00
 88.67     511.08
 88.77     607.00
 88.87     579.00
 88.97     575.00
 89.07     571.17
 89.17     590.43
 89.27     567.00
 89.37     585.00
 89.47     651.00
 89.57     585.92
 89.67     550.87
 89.77     568.89
 89.87     572.19
 89.97     554.32
 90.07     550.86
 90.17     524.00
 90.27     527.00
 90.37     554.38
 90.47     509.32
 90.57     573.00
 90.67     551.00
 90.77     489.13
 90.87     531.15
 90.97     505.30
 91.07     484.00
 91.17     505.00
 91.27     470.00
 91.37     465.82
 91.47     519.10
 91.57     471.00
 91.67     476.00
 91.77     484.00
 91.87     536.00
 91.97     505.00
 92.07     496.11
 92.17     536.00
 92.27     524.00
 92.37     529.10
 92.47     524.00
 92.57     563.00
 92.67     579.00
 92.77     594.16
 92.87     627.00
 92.97     664.20
 93.07     673.00
 93.17     751.00
 93.27     743.06
 93.37     721.00
 93.47     769.00
 93.57     752.00
 93.67     745.00
 93.77     738.87
 93.87     795.61
 93.97     817.17
 94.07     752.56
 94.17     803.00
 94.27     782.02
 94.37     839.46
 94.47     872.16
 94.57     848.00
 94.67     821.27
 94.77     843.00
 94.87     865.14
 94.97     867.00
 95.07     952.00
 95.17     866.00
 95.27     884.91
 95.37     806.00
 95.47     804.00
 95.57     795.00
 95.67     778.87
 95.77     748.00
 95.87     796.00
 95.97     714.00
 96.07     730.51
 96.17     640.05
 96.27     707.08
 96.37     720.00
 96.47     749.10
 96.57     736.00
 96.67     829.00
 96.77     842.09
 96.87     954.56
 96.97     955.15
 97.07    1078.00
 97.17    1164.53
 97.27    1173.00
 97.37    1311.00
 97.47    1339.69
 97.57    1390.00
 97.67    1464.09
 97.77    1391.00
 97.87    1451.92
 97.97    1324.16
 98.07    1404.00
 98.17    1238.00
 98.27    1224.00
 98.37    1183.00
 98.47    1128.00
 98.57    1081.00
 98.67     952.00
 98.77     921.11
 98.87     903.00
 98.97     886.38
 99.07     840.04
 99.17     832.00
 99.27     851.00
 99.37     874.58
 99.47     863.87
 99.57     889.00
 99.67    1060.00
 99.77    1120.67
 99.87    1124.00
 99.97    1315.88
100.07    1371.00
100.17    1407.00
100.27    1498.37
100.37    1704.00
100.47    1785.67
100.57    1825.99
100.67    1856.00
100.77    1916.00
100.87    1965.11
100.97    1955.38
101.07    1965.00
101.17    1974.83
101.27    1958.00
101.37    1873.00
101.47    1938.00
101.57    1709.00
101.67    1733.00
101.77    1561.00
101.87    1473.00
101.97    1403.71
102.07    1391.41
102.17    1343.00
102.27    1234.00
102.37    1290.00
102.47    1144.00
102.57    1146.00
102.67    1135.24
102.77    1146.00
102.87    1048.00
102.97    1080.00
103.07     969.00
103.17     987.00
103.27     954.00
103.37     886.90
103.47     890.00
103.57     863.00
103.67     785.13
103.77     855.00
103.87     775.62
103.97     719.00
104.07     627.15
104.17     619.00
104.27     661.00
104.37     595.63
104.47     601.00
104.57     574.00
104.67     561.00
104.77     491.56
104.87     534.83
104.97     502.92
105.07     526.00
105.17     527.00
105.27     558.00
105.37     530.00
105.47     538.00
105.57     550.00
105.67     471.31
105.77     493.06
105.87     564.36
105.97     566.00
106.07     499.10
106.17     583.00
106.27     536.00
106.37     559.20
106.47     538.00
106.57     593.38
106.67     622.00
106.77     607.00
106.87     612.93
106.97     626.00
107.07     640.00
107.17     687.12
107.27     662.00
107.37     695.17
107.47     718.75
107.57     670.44
107.67     703.00
107.77     690.00
107.87     684.00
107.97     650.76
108.07     671.00
108.17     638.00
108.27     648.00
108.37     710.21
108.47     651.00
108.57     658.15
108.67     669.00
108.77     641.03
108.87     649.89
108.97     649.00
109.07     682.00
109.17     657.90
109.27     680.00
109.37     715.64
109.47     648.66
109.57     665.00
109.67     641.40
109.77     610.00
109.87     604.00
109.97     635.54
110.07     654.00
110.17     557.00
110.27     544.44
110.37     576.00
110.47     577.98
110.57     588.00
110.67     585.00
110.77     525.00
110.87     554.00
110.97     530.00
111.07     533.00
111.17     471.00
111.27     564.00
111.37     576.00
111.47     538.00
111.57     551.64
111.67     535.00
111.77     552.00
111.87     540.00
111.97     539.59
112.07     557.00
112.17     556.00
112.27     562.04
112.37     512.00
112.47     535.00
112.57     587.61
112.67     551.00
112.77     615.65
112.87     543.00
112.97     561.00
113.07     579.00
113.17     571.00
113.27     586.00
113.37     557.00
113.47     637.00
113.57     621.00
113.67     613.00
113.77     629.11
113.87     631.00
113.97     690.00
114.07     706.00
114.17     742.98
114.27     857.00
114.37     875.00
114.47     918.00
114.57     975.00
114.67    1088.78
114.77    1222.04
114.87    1348.00
114.97    1519.00
115.07    1701.53
115.17    1831.95
115.27    2140.00
115.37    2393.05
115.47    2663.29
115.57    2815.12
115.67    3130.76
115.77    3556.00
115.87    3890.00
115.97    4298.00
116.07    4568.00
116.17    5134.09
116.27    5305.00
116.37    5788.22
116.47    6157.07
116.57    6387.00
116.67    6515.00
116.77    6699.66
116.87    6853.00
116.97    6764.00
117.07    6864.00
117.17    6712.98
117.27    6477.16
117.37    6408.00
117.47    6096.00
117.57    5694.00
117.67    5418.00
117.77    5036.21
117.87    4767.77
117.97    4375.07
118.07    4071.00
118.17    3699.00
118.27    3278.68
118.37    3073.44
118.47    2787.09
118.57    2543.00
118.67    2170.00
118.77    1922.00
118.87    1721.13
118.97    1589.00
119.07    1396.00
119.17    1269.00
119.27    1177.00
119.37    1076.00
119.47    1020.00
119.57     882.08
119.67     907.22
119.77     885.00
119.87     812.00
119.97     698.71
120.07     716.00
120.17     645.00
120.27     691.00
120.37     626.00
120.47     609.00
120.57     567.49
120.67     593.00
120.77     570.51
120.87     582.00
120.97     621.01
121.07     585.00
121.17     583.53
121.27     512.00
121.37     540.88
121.47     570.00
121.57     564.00
121.67     582.00
121.77     578.00
121.87     604.00
121.97     595.00
122.07     601.00
122.17     585.00
122.27     603.00
122.37     588.83
122.47     626.00
122.57     628.00
122.67     604.97
122.77     613.00
122.87     603.00
122.97     620.00
123.07     639.00
123.17     647.00
123.27     618.00
123.37     645.86
123.47     581.94
123.57     671.52
123.67     625.00
123.77     619.00
123.87     644.05
123.97     622.11
124.07     654.00
124.17     609.08
124.27     562.39
124.37     553.00
124.47     626.00
124.57     574.09
124.67     565.00
124.77     552.00
124.87     592.00
124.97     615.00
