  9.97     576.00
 10.07     564.51
 10.17     552.08
 10.27     530.00
 10.37     572.00
 10.47     581.12
 10.57     614.61
 10.67     582.00
 10.77     576.00
 10.87     618.00
 10.97     584.00
 11.07     619.00
 11.17     601.00
 11.27     571.00
 11.37     536.87
 11.47     586.00
 11.57     580.22
 11.67     591.00
 11.77     591.57
 11.87     592.61
 11.97     601.98
 12.07     696.34
 12.17     664.88
 12.27     660.00
 12.37     678.00
 12.47     592.00
 12.57     575.00
 12.67     580.15
 12.77     578.12
 12.87     597.00
 12.97     562.86
 13.07     600.65
 13.17     561.58
 13.27     518.00
 13.37     610.29
 13.47     591.54
 13.57     573.00
 13.67     572.00
 13.77     567.00
 13.87     541.47
 13.97     535.73
 14.07     586.27
 14.17     543.00
 14.27     544.00
 14.37     551.00
 14.47     558.00
 14.57     585.97
 14.67     540.00
 14.77     589.59
 14.87     553.00
 14.97     548.83
 15.07     595.33
 15.17     580.70
 15.27     571.15
 15.37     545.95
 15.47     589.00
 15.57     594.25
 15.67     620.00
 15.77     592.00
 15.87     580.16
 15.97     547.00
 16.07     579.77
 16.17     521.00
 16.27     597.00
 16.37     543.00
 16.47     603.83
 16.57     534.00
 16.67     528.00
 16.77     567.00
 16.87     551.90
 16.97     601.65
 17.07     587.00
 17.17     551.00
 17.27     620.00
 17.37     559.00
 17.47     553.00
 17.57     529.00
 17.67     589.00
 17.77     555.00
 17.87     587.00
 17.97     597.83
 18.07     602.61
 18.17     547.00
 18.27     560.00
 18.37     582.05
 18.47     523.76
 18.57     546.00
 18.67     558.00
 18.77     542.00
 18.87     578.19
 18.97     571.00
 19.07     527.00
 19.17     548.30
 19.27     552.00
 19.37     585.40
 19.47     505.00
 19.57     559.00
 19.67     569.00
 19.77     586.00
 19.87     555.53
 19.97     610.00
 20.07     557.69
 20.17     544.25
 20.27     536.00
 20.37     597.00
 20.47     512.00
 20.57     550.27
 20.67     531.00
 20.77     526.00
 20.87     600.00
 20.97     545.28
 21.07     577.44
 21.17     526.97
 21.27     520.00
 21.37     565.00
 21.47     522.62
 21.57     554.00
 21.67     562.00
 21.77     547.00
 21.87     574.76
 21.97     603.00
 22.07     527.57
 22.17     539.00
 22.27     560.76
 22.37     506.00
 22.47     586.00
 22.57     516.00
 22.67     567.00
 22.77     570.21
 22.87     564.00
 22.97     573.50
 23.07     583.00
 23.17     570.28
 23.27     539.00
 23.37     578.00
 23.47     552.73
 23.57     508.48
 23.67     572.91
 23.77     526.00
 23.87     596.00
 23.97     583.45
 24.07     555.39
 24.17     552.00
 24.27     557.00
 24.37     618.00
 24.47     567.00
 24.57     633.00
 24.67     556.00
 24.77     598.00
 24.87     625.00
 24.97     643.00
 25.07     598.09
 25.17     615.00
 25.27     556.00
 25.37     568.88
 25.47     531.00
 25.57     560.00
 25.67     559.00
 25.77     523.94
 25.87     564.00
 25.97     560.00
 26.07     538.00
 26.17     545.99
 26.27     553.00
 26.37     572.41
 26.47     523.22
 26.57     547.79
 26.67     581.00
 26.77     522.00
 26.87     536.00
 26.97     509.05
 27.07     556.00
 27.17     580.00
 27.27     543.00
 27.37     547.00
 27.47     514.82
 27.57     518.00
 27.67     540.00
 27.77     593.76
 27.87     614.96
 27.97     642.00
 28.07     815.87
 28.17     906.40
 28.27     956.00
 28.37     920.00
 28.47     749.00
 28.57     701.00
 28.67     706.00
 28.77     761.60
 28.87     836.00
 28.97     759.00
 29.07     835.99
 29.17     721.00
 29.27     644.95
 29.37     607.00
 29.47     570.00
 29.57     639.00
 29.67     578.00
 29.77     606.08
 29.87     588.00
 29.97     598.00
 30.07     544.58
 30.17     534.15
 30.27     559.00
 30.37     584.00
 30.47     588.00
 30.57     575.00
 30.67     536.00
 30.77     599.08
 30.87     649.46
 30.97     588.00
 31.07     623.00
 31.17     571.54
 31.27     575.72
 31.37     576.65
 31.47     549.75
 31.57     565.23
 31.67     517.00
 31.77     534.05
 31.87     508.41
 31.97     533.00
 32.07     525.00
 32.17     546.00
 32.27     563.00
 32.37     513.42
 32.47     486.75
 32.57     552.20
 32.67     575.00
 32.77     532.61
 32.87     534.00
 32.97     505.39
 33.07     531.86
 33.17     541.00
 33.27     566.43
 33.37     528.00
 33.47     566.00
 33.57     577.00
 33.67     654.00
 33.77     740.00
 33.87     824.36
 33.97    1010.58
 34.07    1056.16
 34.17    1011.00
 34.27     882.00
 34.37     722.13
 34.47     661.00
 34.57     566.00
 34.67     571.19
 34.77     535.00
 34.87     559.00
 34.97     539.00
 35.07     521.00
 35.17     555.00
 35.27     551.00
 35.37     528.00
 35.47     573.00
 35.57     561.54
 35.67     506.38
 35.77     505.00
 35.87     530.00
 35.97     522.89
 36.07     523.00
 36.17     533.00
 36.27     542.38
 36.37     536.64
 36.47     521.14
 36.57     508.00
 36.67     494.00
 36.77     520.00
 36.87     492.00
 36.97     556.83
 37.07     523.00
 37.17     555.65
 37.27     477.19
 37.37     523.00
 37.47     543.00
 37.57     522.00
 37.67     497.00
 37.77     524.00
 37.87     495.90
 37.97     561.30
 38.07     491.38
 38.17     516.00
 38.27     484.44
 38.37     481.00
 38.47     494.77
 38.57     478.00
 38.67     513.00
 38.77     511.00
 38.87     473.64
 38.97     497.42
 39.07     491.46
 39.17     522.92
 39.27     505.00
 39.37     493.00
 39.47     452.00
 39.57     519.00
 39.67     518.87
 39.77     554.00
 39.87     539.00
 39.97     503.00
 40.07     511.00
 40.17     487.00
 40.27     496.00
 40.37     511.00
 40.47     483.00
 40.57     529.64
 40.67     513.00
 40.77     480.00
 40.87     512.34
 40.97     514.00
 41.07     518.05
 41.17     543.47
 41.27     471.00
 41.37     475.00
 41.47     531.00
 41.57     474.00
 41.67     519.00
 41.77     477.00
 41.87     552.14
 41.97     479.46
 42.07     504.00
 42.17     506.00
 42.27     580.49
 42.37     571.00
 42.47     623.68
 42.57     567.96
 42.67     617.00
 42.77     624.27
 42.87     597.00
 42.97     593.00
 43.07     519.00
 43.17     501.00
 43.27     552.34
 43.37     551.90
 43.47     550.00
 43.57     499.00
 43.67     496.00
 43.77     483.00
 43.87     501.00
 43.97     479.21
 44.07     495.80
 44.17     525.86
 44.27     500.00
 44.37     495.39
 44.47     531.41
 44.57     486.00
 44.67     499.00
 44.77     510.00
 44.87     510.00
 44.97     470.48
 45.07     484.00
 45.17     533.41
 45.27     500.00
 45.37     503.00
 45.47     545.07
 45.57     499.15
 45.67     496.21
 45.77     546.07
 45.87     536.00
 45.97     533.76
 46.07     514.00
 46.17     516.00
 46.27     517.00
 46.37     471.85
 46.47     490.74
 46.57     494.77
 46.67     509.00
 46.77     478.54
 46.87     523.00
 46.97     496.00
 47.07     477.12
 47.17     537.00
 47.27     495.17
 47.37     492.31
 47.47     493.00
 47.57     572.00
 47.67     566.88
 47.77     578.00
 47.87     650.00
 47.97     585.21
 48.07     540.25
 48.17     558.00
 48.27     522.00
 48.37     511.00
 48.47     523.00
 48.57     536.00
 48.67     516.00
 48.77     515.00
 48.87     504.00
 48.97     582.00
 49.07     549.00
 49.17     573.00
 49.27     567.43
 49.37     671.60
 49.47     713.30
 49.57     758.00
 49.67     946.00
 49.77    1143.00
 49.87    1410.61
 49.97    1909.00
 50.07    2240.22
 50.17    2518.00
 50.27    2494.00
 50.37    2298.00
 50.47    1898.00
 50.57    1405.00
 50.67    1115.59
 50.77     870.79
 50.87     724.00
 50.97     668.00
 51.07     642.00
 51.17     633.00
 51.27     627.00
 51.37     583.00
 51.47     604.23
 51.57     572.00
 51.67     553.66
 51.77     578.00
 51.87     550.00
 51.97     572.00
 52.07     514.00
 52.17     559.00
 52.27     553.00
 52.37     543.00
 52.47     530.00
 52.57     531.86
 52.67     590.00
 52.77     571.00
 52.87     626.00
 52.97     703.16
 53.07     826.00
 53.17     946.00
 53.27    1046.00
 53.37    1164.63
 53.47    1224.41
 53.57    1155.00
 53.67    1150.00
 53.77     985.00
 53.87     859.00
 53.97     751.00
 54.07     681.00
 54.17     615.00
 54.27     591.25
 54.37     577.59
 54.47     570.00
 54.57     575.00
 54.67     559.00
 54.77     577.00
 54.87     565.00
 54.97     585.91
 55.07     535.74
 55.17     567.00
 55.27     570.00
 55.37     537.00
 55.47     563.00
 55.57     573.00
 55.67     603.00
 55.77     607.46
 55.87     613.00
 55.97     668.92
 56.07     724.28
 56.17     761.00
 56.27     903.00
 56.37    1121.00
 56.47    1430.00
 56.57    1720.00
 56.67    2128.28
 56.77    2516.00
 56.87    2578.00
 56.97    2631.00
 57.07    2415.93
 57.17    2043.33
 57.27    1680.74
 57.37    1279.63
 57.47    1028.00
 57.57     835.12
 57.67     767.00
 57.77     739.72
 57.87     692.00
 57.97     637.90
 58.07     684.37
 58.17     699.00
 58.27     803.30
 58.37     821.00
 58.47     959.00
 58.57     993.00
 58.67    1226.00
 58.77    1318.00
 58.87    1333.00
 58.97    1415.22
 59.07    1580.00
 59.17    1516.00
 59.27    1498.00
 59.37    1360.00
 59.47    1218.68
 59.57    1160.00
 59.67    1084.00
 59.77    1118.00
 59.87    1254.00
 59.97    1355.00
 60.07    1343.08
 60.17    1563.00
 60.27    1517.00
 60.37    1515.00
 60.47    1427.00
 60.57    1332.00
 60.67    1098.00
 60.77     907.46
 60.87     786.00
 60.97     678.69
 61.07     630.37
 61.17     605.95
 61.27     663.60
 61.37     640.00
 61.47     661.00
 61.57     797.96
 61.67     859.00
 61.77     923.83
 61.87    1127.00
 61.97    1243.69
 62.07    1385.27
 62.17    1388.51
 62.27    1365.00
 62.37    1398.98
 62.47    1128.00
 62.57    1076.00
 62.67     871.00
 62.77     760.00
 62.87     718.84
 62.97     655.00
 63.07     641.00
 63.17     630.00
 63.27     532.22
 63.37     530.42
 63.47     561.51
 63.57     546.00
 63.67     572.00
 63.77     575.00
 63.87     641.00
 63.97     673.00
 64.07     701.00
 64.17     768.00
 64.27     848.00
 64.37     894.00
 64.47     949.00
 64.57    1053.00
 64.67    1017.00
 64.77    1029.00
 64.87     916.00
 64.97     916.49
 65.07     887.37
 65.17     762.00
 65.27     709.00
 65.37     696.93
 65.47     646.00
 65.57     666.00
 65.67     629.91
 65.77     621.55
 65.87     607.60
 65.97     539.00
 66.07     573.00
 66.17     566.00
 66.27     537.00
 66.37     542.20
 66.47     569.00
 66.57     576.82
 66.67     561.00
 66.77     539.48
 66.87     594.00
 66.97     599.45
 67.07     633.00
 67.17     708.00
 67.27     819.00
 67.37     865.00
 67.47    1084.00
 67.57    1281.86
 67.67    1509.04
 67.77    1804.00
 67.87    2096.00
 67.97    2372.79
 68.07    2446.00
 68.17    2508.00
 68.27    2286.00
 68.37    2105.00
 68.47    1867.00
 68.57    1535.00
 68.67    1230.00
 68.77    1007.40
 68.87     854.00
 68.97     803.00
 69.07     677.00
 69.17     675.37
 69.27     659.00
 69.37     571.00
 69.47     618.00
 69.57     610.00
 69.67     581.78
 69.77     637.00
 69.87     576.57
 69.97     595.00
 70.07     553.00
 70.17     582.00
 70.27     531.00
 70.37     617.00
 70.47     605.24
 70.57     578.00
 70.67     546.83
 70.77     561.00
 70.87     652.89
 70.97     597.91
 71.07     652.00
 71.17     740.00
 71.27     795.00
 71.37     937.18
 71.47    1092.00
 71.57    1271.00
 71.67    1367.00
 71.77    1572.60
 71.87    1770.00
 71.97    1900.00
 72.07    2012.00
 72.17    1967.00
 72.27    1773.84
 72.37    1637.00
 72.47    1472.00
 72.57    1281.22
 72.67    1162.00
 72.77    1084.81
 72.87     984.00
 72.97     866.00
 73.07     854.36
 73.17     800.00
 73.27     788.41
 73.37     645.00
 73.47     699.96
 73.57     592.00
 73.67     590.00
 73.77     647.05
 73.87     633.00
 73.97     605.54
 74.07     629.00
 74.17     642.00
 74.27     607.00
 74.37     618.31
 74.47     637.00
 74.57     642.00
 74.67     584.48
 74.77     599.82
 74.87     567.09
 74.97     589.00
 75.07     596.33
 75.17     557.00
 75.27     561.70
 75.37     529.00
 75.47     568.00
 75.57     601.00
 75.67     593.00
 75.77     611.11
 75.87     570.47
 75.97     653.74
 76.07     618.61
 76.17     622.62
 76.27     666.00
 76.37     675.00
 76.47     740.00
 76.57     672.35
 76.67     729.00
 76.77     657.00
 76.87     682.00
 76.97     655.00
 77.07     568.00
 77.17     608.00
 77.27     569.00
 77.37     561.69
 77.47     552.91
 77.57     513.00
 77.67     541.00
 77.77     529.83
 77.87     579.20
 77.97     541.00
 78.07     554.00
 78.17     561.07
 78.27     471.00
 78.37     533.00
 78.47     533.00
 78.57     457.00
 78.67     566.00
 78.77     524.00
 78.87     543.43
 78.97     553.00
 79.07     488.00
 79.17     530.38
 79.27     519.00
 79.37     545.57
 79.47     547.00
 79.57     525.00
 79.67     503.19
 79.77     550.00
 79.87     524.00
 79.97     591.50
 80.07     521.00
 80.17     548.00
 80.27     529.65
 80.37     542.00
 80.47     551.00
 80.57     610.50
 80.67     583.00
 80.77     615.80
 80.87     656.21
 80.97     611.00
 81.07     706.12
 81.17     741.00
 81.27     811.00
 81.37     772.00
 81.47     778.00
 81.57     693.24
 81.67     760.00
 81.77     769.00
 81.87     741.00
 81.97     718.00
 82.07     683.00
 82.17     646.68
 82.27     594.00
 82.37     612.93
 82.47     582.17
 82.57     578.33
 82.67     577.00
 82.77     549.95
 82.87     533.41
 82.97     516.81
 83.07     564.00
 83.17     569.00
 83.27     537.00
 83.37     533.00
 83.47     555.00
 83.57     520.16
 83.67     573.00
 83.77     540.00
 83.87     578.06
 83.97     563.00
 84.07     614.60
 84.17     591.00
 84.27     560.00
 84.37     550.27
 84.47     508.00
 84.57     552.00
 84.67     527.00
 84.77     545.58
 84.87     567.00
 84.97     541.00
 85.07     514.00
 85.17     507.00
 85.27     518.73
 85.37     539.00
 85.47     511.67
 85.57     498.99
 85.67     569.00
 85.77     517.57
 85.87     540.00
 85.97     571.11
 86.07     579.00
 86.17     504.74
 86.27     564.91
 86.37     534.00
 86.47     568.00
 86.57     553.98
 86.67     576.00
 86.77     592.00
 86.87     607.00
 86.97     598.00
 87.07     607.00
 87.17     600.84
 87.27     611.00
 87.37     686.00
 87.47     675.80
 87.57     669.77
 87.67     663.56
 87.77     590.00
 87.87     669.00
 87.97     563.26
 88.07     606.80
 88.17     557.21
 88.27     598.00
 88.37     585.03
 88.47     550.00
 88.57     537.67
 88.67     595.00
 88.77     589.09
 88.87     612.00
 88.97     600.00
 89.07     605.00
 89.17     549.30
 89.27     566.00
 89.37     565.00
 89.47     583.00
 89.57     528.00
 89.67     586.85
 89.77     556.00
 89.87     549.00
 89.97     572.00
 90.07     544.00
 90.17     548.11
 90.27     557.51
 90.37     574.00
 90.47     583.79
 90.57     500.64
 90.67     498.83
 90.77     567.21
 90.87     535.00
 90.97     490.51
 91.07     528.00
 91.17     499.00
 91.27     491.62
 91.37     586.00
 91.47     515.00
 91.57     505.00
 91.67     573.44
 91.77     496.00
 91.87     499.00
 91.97     535.00
 92.07     602.87
 92.17     548.91
 92.27     576.78
 92.37     618.25
 92.47     632.00
 92.57     669.00
 92.67     664.73
 92.77     684.39
 92.87     693.29
 92.97     733.00
 93.07     719.00
 93.17     790.60
 93.27     795.00
 93.37     807.00
 93.47     773.91
 93.57     814.00
 93.67     821.00
 93.77     865.00
 93.87     836.00
 93.97     858.00
 94.07     854.80
 94.17     875.00
 94.27     914.00
 94.37     888.76
 94.47     902.00
 94.57     894.00
 94.67     923.00
 94.77     885.49
 94.87     943.00
 94.97     892.00
 95.07     855.09
 95.17     872.00
 95.27     832.00
 95.37     795.00
 95.47     774.00
 95.57     765.02
 95.67     713.00
 95.77     683.00
 95.87     688.46
 95.97     662.00
 96.07     646.00
 96.17     701.00
 96.27     681.44
 96.37     772.00
 96.47     747.00
 96.57     810.00
 96.67     941.21
 96.77     973.00
 96.87    1075.00
 96.97    1190.92
 97.07    1222.00
 97.17    1312.00
 97.27    1302.00
 97.37    1348.00
 97.47    1351.03
 97.57    1463.00
 97.67    1433.00
 97.77    1483.00
 97.87    1440.00
 97.97    1291.00
 98.07    1253.00
 98.17    1177.06
 98.27    1151.00
 98.37    1013.25
 98.47     989.00
 98.57     838.00
 98.67     839.00
 98.77     780.00
 98.87     794.00
 98.97     835.00
 99.07     800.00
 99.17     879.00
 99.27     917.62
 99.37     941.00
 99.47     997.27
 99.57    1112.00
 99.67    1179.00
 99.77    1330.00
 99.87    1422.59
 99.97    1480.05
100.07    1587.91
100.17    1695.00
100.27    1708.00
100.37    1829.00
100.47    2034.00
100.57    2076.00
100.67    2083.89
100.77    2067.00
100.87    2081.78
100.97    1956.11
101.07    1941.00
101.17    1827.00
101.27    1751.21
101.37    1686.00
101.47    1579.00
101.57    1536.00
101.67    1504.07
101.77    1298.53
101.87    1302.00
101.97    1227.00
102.07    1193.20
102.17    1134.00
102.27    1079.00
102.37    1116.58
102.47    1068.00
102.57    1041.90
102.67    1056.00
102.77    1036.00
102.87     978.29
102.97     966.02
103.07     940.00
103.17     879.00
103.27     827.02
103.37     836.29
103.47     767.00
103.57     758.00
103.67     680.25
103.77     653.00
103.87     713.00
103.97     620.00
104.07     602.00
104.17     590.12
104.27     588.45
104.37     602.00
104.47     527.00
104.57     505.28
104.67     517.00
104.77     531.00
104.87     574.00
104.97     497.33
105.07     552.00
105.17     573.01
105.27     510.66
105.37     573.14
105.47     569.68
105.57     516.15
105.67     574.00
105.77     570.00
105.87     540.00
105.97     580.00
106.07     544.00
106.17     621.99
106.27     566.00
106.37     588.29
106.47     630.00
106.57     593.00
106.67     631.76
106.77     660.10
106.87     680.84
106.97     665.00
107.07     638.68
107.17     712.00
107.27     717.59
107.37     683.00
107.47     612.00
107.57     739.27
107.67     697.40
107.77     729.97
107.87     672.00
107.97     739.60
108.07     703.00
108.17     679.05
108.27     682.00
108.37     739.44
108.47     697.72
108.57     724.28
108.67     688.00
108.77     684.06
108.87     686.00
108.97     657.71
109.07     722.66
109.17     680.00
109.27     620.40
109.37     649.00
109.47     691.00
109.57     607.79
109.67     649.00
109.77     598.00
109.87     621.00
109.97     604.00
110.07     559.47
110.17     584.00
110.27     570.94
110.37     587.00
110.47     580.15
110.57     559.44
110.67     541.00
110.77     539.00
110.87     579.00
110.97     549.89
111.07     585.00
111.17     515.00
111.27     540.50
111.37     564.11
111.47     529.00
111.57     546.00
111.67     514.00
111.77     533.47
111.87     522.00
111.97     564.00
112.07     572.00
112.17     601.00
112.27     584.00
112.37     577.00
112.47     576.00
112.57     607.00
112.67     592.00
112.77     655.00
112.87     623.00
112.97     620.12
113.07     694.11
113.17     737.76
113.27     742.48
113.37     765.00
113.47     817.67
113.57     812.00
113.67     811.38
113.77     832.00
113.87     923.00
113.97     942.00
114.07    1034.59
114.17    1045.00
114.27    1097.00
114.37    1167.00
114.47    1281.00
114.57    1466.00
114.67    1528.82
114.77    1655.00
114.87    1939.00
114.97    1969.21
115.07    2299.00
115.17    2438.00
115.27    2758.54
115.37    3073.80
115.47    3422.00
115.57    3737.00
115.67    4108.67
115.77    4477.00
115.87    4826.00
115.97    5312.98
116.07    5767.71
116.17    5874.00
116.27    6362.79
116.37    6451.63
116.47    6794.00
116.57    6957.00
116.67    6848.40
116.77    6768.97
116.87    6850.00
116.97    6631.00
117.07    6262.00
117.17    6020.00
117.27    5843.28
117.37    5204.00
117.47    4858.00
117.57    4589.00
117.67    4251.00
117.77    4012.00
117.87    3641.00
117.97    3113.50
118.07    2927.00
118.17    2465.71
118.27    2153.05
118.37    1951.06
118.47    1720.00
118.57    1539.58
118.67    1329.00
118.77    1238.00
118.87    1128.52
118.97     995.00
119.07     959.00
119.17     932.85
119.27     847.00
119.37     758.00
119.47     694.00
119.57     703.82
119.67     663.00
119.77     640.00
119.87     663.00
119.97     623.24
120.07     580.00
120.17     597.00
120.27     635.00
120.37     586.00
120.47     611.14
120.57     563.00
120.67     591.00
120.77     572.00
120.87     546.00
120.97     599.00
121.07     530.18
121.17     553.80
121.27     567.00
121.37     577.91
121.47     543.71
121.57     594.72
121.67     611.00
121.77     580.00
121.87     599.00
121.97     586.00
122.07     620.00
122.17     609.86
122.27     585.00
122.37     630.80
122.47     626.00
122.57     611.09
122.67     648.00
122.77     627.00
122.87     587.00
122.97     628.00
123.07     647.00
123.17     669.00
123.27     606.68
123.37     662.78
123.47     623.00
123.57     569.00
123.67     583.99
123.77     626.00
123.87     655.00
123.97     599.00
124.07     647.00
124.17     623.00
124.27     624.00
124.37     674.00
124.47     598.00
124.57     573.00
124.67     569.95
124.77     583.00
124.87     587.46
124.97     570.00
