  9.97     524.52
 10.07     594.00
 10.17     522.99
 10.27     604.84
 10.37     563.00
 10.47     539.28
 10.57     602.00
 10.67     606.74
 10.77     601.52
 10.87     573.00
 10.97     610.00
 11.07     601.31
 11.17     593.00
 11.27     594.57
 11.37     625.00
 11.47     618.51
 11.57     623.09
 11.67     615.00
 11.77     568.00
 11.87     643.00
 11.97     669.00
 12.07     692.00
 12.17     673.00
 12.27     671.00
 12.37     691.89
 12.47     634.00
 12.57     632.00
 12.67     552.00
 12.77     554.22
 12.87     579.00
 12.97     593.00
 13.07     580.00
 13.17     601.00
 13.27     533.96
 13.37     497.00
 13.47     614.11
 13.57     588.62
 13.67     599.86
 13.77     545.00
 13.87     557.00
 13.97     544.98
 14.07     613.18
 14.17     564.12
 14.27     549.00
 14.37     598.30
 14.47     600.00
 14.57     548.00
 14.67     554.00
 14.77     560.00
 14.87     576.00
 14.97     510.00
 15.07     533.27
 15.17     563.24
 15.27     554.00
 15.37     585.00
 15.47     518.00
 15.57     597.00
 15.67     574.11
 15.77     540.16
 15.87     544.00
 15.97     550.00
 16.07     590.00
 16.17     570.05
 16.27     591.50
 16.37     556.36
 16.47     586.00
 16.57     559.00
 16.67     583.93
 16.77     573.00
 16.87     534.42
 16.97     567.23
 17.07     564.00
 17.17     556.59
 17.27     555.00
 17.37     527.00
 17.47     543.00
 17.57     597.83
 17.67     566.00
 17.77     528.43
 17.87     542.33
 17.97     543.00
 18.07     533.00
 18.17     572.00
 18.27     557.00
 18.37     546.00
 18.47     539.00
 18.57     568.00
 18.67     539.00
 18.77     591.00
 18.87     564.48
 18.97     545.00
 19.07     550.00
 19.17     552.00
 19.27     599.95
 19.37     561.00
 19.47     539.00
 19.57     576.00
 19.67     562.00
 19.77     520.88
 19.87     592.57
 19.97     548.00
 20.07     575.00
 20.17     544.00
 20.27     544.83
 20.37     574.32
 20.47     579.85
 20.57     537.00
 20.67     564.00
 20.77     513.00
 20.87     569.74
 20.97     536.00
 21.07     565.29
 21.17     581.09
 21.27     564.00
 21.37     595.00
 21.47     628.00
 21.57     551.00
 21.67     555.00
 21.77     521.00
 21.87     523.31
 21.97     531.00
 22.07     563.00
 22.17     527.00
 22.27     545.82
 22.37     517.00
 22.47     564.00
 22.57     562.00
 22.67     564.05
 22.77     566.00
 22.87     570.00
 22.97     566.72
 23.07     546.00
 23.17     522.38
 23.27     562.00
 23.37     547.00
 23.47     546.00
 23.57     556.00
 23.67     565.00
 23.77     586.00
 23.87     557.00
 23.97     515.06
 24.07     585.00
 24.17     583.00
 24.27     510.80
 24.37     588.00
 24.47     617.83
 24.57     553.00
 24.67     649.00
 24.77     602.41
 24.87     645.00
 24.97     587.66
 25.07     563.00
 25.17     557.00
 25.27     563.00
 25.37     541.11
 25.47     585.00
 25.57     521.00
 25.67     523.91
 25.77     550.00
 25.87     547.00
 25.97     555.00
 26.07     528.24
 26.17     546.00
 26.27     519.00
 26.37     580.00
 26.47     504.73
 26.57     538.00
 26.67     517.00
 26.77     566.00
 26.87     581.00
 26.97     585.77
 27.07     541.00
 27.17     576.72
 27.27     519.00
 27.37     584.00
 27.47     543.22
 27.57     611.00
 27.67     557.40
 27.77     579.45
 27.87     621.87
 27.97     687.00
 28.07     739.00
 28.17     864.00
 28.27     966.00
 28.37     885.00
 28.47     822.00
 28.57     679.21
 28.67     707.00
 28.77     736.90
 28.87     815.00
 28.97     819.00
 29.07     743.00
 29.17     719.17
 29.27     631.00
 29.37     578.00
 29.47     599.00
 29.57     611.00
 29.67     629.00
 29.77     551.00
 29.87     528.39
 29.97     525.74
 30.07     520.00
 30.17     620.00
 30.27     543.00
 30.37     561.00
 30.47     593.00
 30.57     587.00
 30.67     569.00
 30.77     558.42
 30.87     623.00
 30.97     634.38
 31.07     603.00
 31.17     560.00
 31.27     533.00
 31.37     549.00
 31.47     551.00
 31.57     546.00
 31.67     585.00
 31.77     531.00
 31.87     539.00
 31.97     532.00
 32.07     502.85
 32.17     538.60
 32.27     570.00
 32.37     549.00
 32.47     573.48
 32.57     540.13
 32.67     592.00
 32.77     576.00
 32.87     558.00
 32.97     533.00
 33.07     540.00
 33.17     567.00
 33.27     502.55
 33.37     549.00
 33.47     543.41
 33.57     588.74
 33.67     613.00
 33.77     791.00
 33.87     869.03
 33.97    1027.00
 34.07    1062.00
 34.17     982.00
 34.27     897.88
 34.37     761.78
 34.47     623.00
 34.57     558.29
 34.67     534.00
 34.77     520.00
 34.87     574.00
 34.97     539.45
 35.07     533.00
 35.17     515.00
 35.27     546.00
 35.37     494.00
 35.47     523.00
 35.57     521.19
 35.67     500.59
 35.77     543.00
 35.87     532.00
 35.97     545.25
 36.07     557.12
 36.17     540.11
 36.27     555.00
 36.37     529.00
 36.47     502.00
 36.57     518.00
 36.67     502.80
 36.77     505.00
 36.87     523.00
 36.97     494.81
 37.07     490.00
 37.17     498.00
 37.27     482.39
 37.37     504.39
 37.47     500.00
 37.57     543.42
 37.67     554.00
 37.77     513.86
 37.87     534.00
 37.97     489.00
 38.07     498.47
 38.17     514.00
 38.27     496.47
 38.37     468.49
 38.47     540.28
 38.57     510.00
 38.67     526.00
 38.77     522.00
 38.87     464.00
 38.97     534.90
 39.07     504.00
 39.17     515.17
 39.27     526.00
 39.37     491.00
 39.47     512.00
 39.57     536.01
 39.67     513.00
 39.77     536.42
 39.87     504.00
 39.97     505.78
 40.07     534.00
 40.17     494.00
 40.27     482.00
 40.37     476.00
 40.47     510.51
 40.57     509.00
 40.67     488.00
 40.77     529.05
 40.87     502.55
 40.97     509.00
 41.07     546.00
 41.17     472.00
 41.27     515.30
 41.37     484.00
 41.47     482.00
 41.57     466.50
 41.67     473.27
 41.77     513.00
 41.87     500.00
 41.97     510.00
 42.07     503.00
 42.17     501.55
 42.27     521.00
 42.37     557.00
 42.47     567.00
 42.57     564.00
 42.67     599.00
 42.77     637.45
 42.87     544.00
 42.97     594.52
 43.07     553.00
 43.17     571.53
 43.27     516.00
 43.37     521.82
 43.47     527.00
 43.57     488.97
 43.67     529.00
 43.77     518.12
 43.87     535.66
 43.97     548.00
 44.07     513.00
 44.17     488.00
 44.27     528.00
 44.37     526.69
 44.47     489.70
 44.57     518.00
 44.67     488.00
 44.77     512.00
 44.87     495.00
 44.97     540.76
 45.07     521.00
 45.17     516.00
 45.27     468.71
 45.37     473.00
 45.47     477.43
 45.57     555.00
 45.67     480.48
 45.77     491.00
 45.87     509.00
 45.97     452.00
 46.07     498.00
 46.17     511.49
 46.27     539.99
 46.37     485.20
 46.47     516.68
 46.57     466.02
 46.67     491.00
 46.77     564.00
 46.87     492.00
 46.97     547.16
 47.07     490.00
 47.17     488.67
 47.27     486.00
 47.37     499.62
 47.47     525.00
 47.57     569.00
 47.67     584.00
 47.77     559.00
 47.87     616.00
 47.97     606.00
 48.07     587.00
 48.17     533.50
 48.27     578.00
 48.37     514.87
 48.47     582.00
 48.57     539.00
 48.67     490.00
 48.77     558.72
 48.87     522.00
 48.97     574.00
 49.07     567.00
 49.17     600.00
 49.27     589.00
 49.37     672.71
 49.47     695.26
 49.57     854.00
 49.67     921.00
 49.77    1156.00
 49.87    1452.00
 49.97    1853.68
 50.07    2143.41
 50.17    2467.00
 50.27    2466.00
 50.37    2282.00
 50.47    1884.00
 50.57    1448.00
 50.67    1066.00
 50.77     794.00
 50.87     736.57
 50.97     642.00
 51.07     620.00
 51.17     614.00
 51.27     574.02
 51.37     570.37
 51.47     563.31
 51.57     530.12
 51.67     506.89
 51.77     552.14
 51.87     569.30
 51.97     501.70
 52.07     576.00
 52.17     555.00
 52.27     544.51
 52.37     571.00
 52.47     586.35
 52.57     559.00
 52.67     578.00
 52.77     566.00
 52.87     584.10
 52.97     741.00
 53.07     806.00
 53.17     929.00
 53.27    1027.28
 53.37    1175.00
 53.47    1234.00
 53.57    1183.97
 53.67    1062.00
 53.77    1006.00
 53.87     851.00
 53.97     756.00
 54.07     719.00
 54.17     604.00
 54.27     595.00
 54.37     579.00
 54.47     555.00
 54.57     592.70
 54.67     578.00
 54.77     622.00
 54.87     531.82
 54.97     555.00
 55.07     589.00
 55.17     551.90
 55.27     546.87
 55.37     567.00
 55.47     570.00
 55.57     590.67
 55.67     584.50
 55.77     587.00
 55.87     610.00
 55.97     619.00
 56.07     636.95
 56.17     721.00
 56.27     964.00
 56.37    1147.00
 56.47    1384.00
 56.57    1804.28
 56.67    2134.00
 56.77    2498.35
 56.87    2745.89
 56.97    2555.00
 57.07    2446.22
 57.17    1983.00
 57.27    1624.83
 57.37    1291.00
 57.47    1081.39
 57.57     806.67
 57.67     767.00
 57.77     696.00
 57.87     679.00
 57.97     708.00
 58.07     646.50
 58.17     725.00
 58.27     816.00
 58.37     868.66
 58.47     964.95
 58.57    1067.70
 58.67    1223.31
 58.77    1443.00
 58.87    1556.00
 58.97    1512.02
 59.07    1547.96
 59.17    1581.00
 59.27    1444.00
 59.37    1303.89
 59.47    1274.00
 59.57    1198.00
 59.67    1079.31
 59.77    1090.70
 59.87    1245.00
 59.97    1310.00
 60.07    1421.00
 60.17    1558.00
 60.27    1639.00
 60.37    1578.73
 60.47    1388.17
 60.57    1250.00
 60.67    1077.00
 60.77     916.00
 60.87     826.20
 60.97     726.36
 61.07     683.00
 61.17     642.00
 61.27     626.00
 61.37     611.00
 61.47     727.68
 61.57     793.83
 61.67     844.00
 61.77     914.15
 61.87    1108.28
 61.97    1268.00
 62.07    1338.00
 62.17    1400.00
 62.27    1390.00
 62.37    1298.00
 62.47    1191.00
 62.57    1080.00
 62.67     856.24
 62.77     821.47
 62.87     689.98
 62.97     621.00
 63.07     602.00
 63.17     559.35
 63.27     544.00
 63.37     520.00
 63.47     555.00
 63.57     568.00
 63.67     574.22
 63.77     595.63
 63.87     647.76
 63.97     658.00
 64.07     719.00
 64.17     814.00
 64.27     849.00
 64.37     930.00
 64.47    1033.00
 64.57    1023.00
 64.67    1084.00
 64.77    1029.00
 64.87     943.00
 64.97     925.00
 65.07     838.00
 65.17     796.40
 65.27     756.11
 65.37     673.00
 65.47     632.00
 65.57     623.44
 65.67     645.86
 65.77     555.00
 65.87     599.00
 65.97     563.84
 66.07     560.00
 66.17     570.00
 66.27     538.00
 66.37     524.24
 66.47     586.58
 66.57     539.00
 66.67     581.00
 66.77     556.00
 66.87     598.00
 66.97     616.50
 67.07     660.06
 67.17     673.92
 67.27     805.41
 67.37     879.00
 67.47    1009.00
 67.57    1250.00
 67.67    1519.00
 67.77    1785.00
 67.87    2140.49
 67.97    2301.00
 68.07    2367.00
 68.17    2386.00
 68.27    2367.00
 68.37    2036.00
 68.47    1856.00
 68.57    1509.51
 68.67    1253.00
 68.77    1043.00
 68.87     833.55
 68.97     761.00
 69.07     686.69
 69.17     678.00
 69.27     633.38
 69.37     617.47
 69.47     614.79
 69.57     549.00
 69.67     604.00
 69.77     611.68
 69.87     535.00
 69.97     564.64
 70.07     592.68
 70.17     520.61
 70.27     531.41
 70.37     528.08
 70.47     555.00
 70.57     590.46
 70.67     587.00
 70.77     610.63
 70.87     602.01
 70.97     671.08
 71.07     648.00
 71.17     749.00
 71.27     857.06
 71.37     890.00
 71.47    1051.00
 71.57    1197.00
 71.67    1348.00
 71.77    1644.21
 71.87    1715.50
 71.97    1963.00
 72.07    1917.00
 72.17    1836.00
 72.27    1831.00
 72.37    1703.19
 72.47    1407.61
 72.57    1368.00
 72.67    1190.19
 72.77    1063.60
 72.87     950.00
 72.97     840.00
 73.07     779.00
 73.17     790.00
 73.27     801.21
 73.37     730.93
 73.47     606.00
 73.57     673.46
 73.67     597.00
 73.77     575.78
 73.87     631.00
 73.97     543.93
 74.07     611.75
 74.17     553.09
 74.27     647.00
 74.37     551.57
 74.47     620.00
 74.57     603.53
 74.67     602.19
 74.77     617.00
 74.87     631.00
 74.97     589.40
 75.07     542.00
 75.17     542.00
 75.27     550.00
 75.37     552.00
 75.47     567.00
 75.57     569.00
 75.67     564.73
 75.77     600.00
 75.87     620.00
 75.97     621.00
 76.07     597.56
 76.17     649.98
 76.27     657.00
 76.37     709.00
 76.47     679.80
 76.57     708.00
 76.67     715.60
 76.77     680.00
 76.87     620.00
 76.97     672.00
 77.07     635.00
 77.17     606.00
 77.27     577.24
 77.37     537.80
 77.47     560.00
 77.57     504.00
 77.67     513.00
 77.77     496.00
 77.87     509.22
 77.97     527.49
 78.07     548.27
 78.17     570.38
 78.27     555.00
 78.37     562.57
 78.47     558.00
 78.57     511.00
 78.67     533.60
 78.77     523.00
 78.87     564.00
 78.97     510.00
 79.07     501.00
 79.17     522.00
 79.27     542.00
 79.37     579.00
 79.47     489.00
 79.57     526.00
 79.67     505.00
 79.77     548.27
 79.87     532.00
 79.97     529.96
 80.07     581.33
 80.17     591.69
 80.27     535.84
 80.37     587.09
 80.47     604.00
 80.57     575.00
 80.67     625.65
 80.77     652.00
 80.87     706.57
 80.97     678.00
 81.07     719.00
 81.17     739.40
 81.27     742.00
 81.37     757.00
 81.47     771.28
 81.57     748.62
 81.67     760.47
 81.77     761.00
 81.87     689.95
 81.97     698.92
 82.07     670.00
 82.17     661.00
 82.27     662.53
 82.37     642.44
 82.47     621.00
 82.57     537.00
 82.67     589.54
 82.77     545.93
 82.87     585.04
 82.97     536.00
 83.07     535.00
 83.17     552.00
 83.27     560.75
 83.37     572.88
 83.47     596.93
 83.57     550.00
 83.67     521.86
 83.77     596.00
 83.87     560.00
 83.97     544.00
 84.07     544.22
 84.17     589.00
 84.27     543.00
 84.37     615.49
 84.47     546.00
 84.57     560.00
 84.67     571.00
 84.77     521.00
 84.87     534.00
 84.97     509.36
 85.07     557.00
 85.17     515.00
 85.27     516.57
 85.37     515.77
 85.47     495.00
 85.57     554.00
 85.67     524.00
 85.77     539.52
 85.87     533.00
 85.97     501.83
 86.07     500.00
 86.17     534.00
 86.27     551.28
 86.37     506.54
 86.47     550.00
 86.57     520.00
 86.67     594.00
 86.77     579.00
 86.87     549.66
 86.97     607.00
 87.07     643.00
 87.17     632.00
 87.27     605.85
 87.37     625.00
 87.47     603.00
 87.57     681.00
 87.67     613.00
 87.77     658.00
 87.87     565.77
 87.97     565.52
 88.07     631.00
 88.17     588.72
 88.27     602.00
 88.37     584.00
 88.47     565.17
 88.57     552.46
 88.67     569.00
 88.77     585.00
 88.87     592.00
 88.97     617.66
 89.07     580.00
 89.17     623.00
 89.27     605.00
 89.37     643.00
 89.47     598.00
 89.57     562.00
 89.67     621.35
 89.77     596.00
 89.87     576.00
 89.97     544.66
 90.07     526.10
 90.17     552.52
 90.27     506.00
 90.37     548.00
 90.47     559.00
 90.57     537.00
 90.67     551.11
 90.77     489.05
 90.87     554.00
 90.97     527.00
 91.07     535.92
 91.17     513.00
 91.27     517.00
 91.37     509.00
 91.47     498.00
 91.57     515.00
 91.67     516.00
 91.77     545.00
 91.87     540.26
 91.97     526.00
 92.07     564.00
 92.17     525.00
 92.27     588.44
 92.37     617.94
 92.47     598.75
 92.57     626.00
 92.67     660.00
 92.77     709.15
 92.87     728.00
 92.97     759.93
 93.07     736.40
 93.17     717.26
 93.27     769.56
 93.37     846.00
 93.47     858.67
 93.57     799.00
 93.67     808.77
 93.77     850.00
 93.87     814.00
 93.97     899.00
 94.07     872.92
 94.17     818.23
 94.27     884.00
 94.37     874.00
 94.47     858.00
 94.57     830.33
 94.67     913.00
 94.77     938.00
 94.87     902.00
 94.97     953.00
 95.07     844.00
 95.17     915.00
 95.27     767.97
 95.37     832.66
 95.47     816.00
 95.57     720.00
 95.67     686.00
 95.77     633.00
 95.87     706.80
 95.97     703.00
 96.07     713.15
 96.17     693.50
 96.27     730.21
 96.37     756.00
 96.47     807.33
 96.57     890.00
 96.67     874.80
 96.77     952.00
 96.87    1069.22
 96.97    1094.00
 97.07    1177.00
 97.17    1225.00
 97.27    1343.00
 97.37    1346.00
 97.47    1442.00
 97.57    1430.00
 97.67    1483.00
 97.77    1386.77
 97.87    1342.00
 97.97    1311.00
 98.07    1260.68
 98.17    1102.00
 98.27    1107.00
 98.37    1021.00
 98.47     926.38
 98.57     854.30
 98.67     865.00
 98.77     786.25
 98.87     815.43
 98.97     784.00
 99.07     836.00
 99.17     834.00
 99.27     927.00
 99.37     989.87
 99.47    1016.00
 99.57    1064.00
 99.67    1115.76
 99.77    1322.79
 99.87    1434.75
 99.97    1491.00
100.07    1556.87
100.17    1763.00
100.27    1879.91
100.37    1863.00
100.47    1967.00
100.57    2115.00
100.67    2068.00
100.77    2072.00
100.87    2088.00
100.97    2078.33
101.07    2000.00
101.17    1886.00
101.27    1844.05
101.37    1749.00
101.47    1582.38
101.57    1637.00
101.67    1420.00
101.77    1383.00
101.87    1280.45
101.97    1248.00
102.07    1156.00
102.17    1177.91
102.27    1156.00
102.37    1163.00
102.47    1063.00
102.57    1154.00
102.67    1056.29
102.77    1059.00
102.87     992.24
102.97     926.00
103.07     956.71
103.17     935.43
103.27     832.00
103.37     850.58
103.47     758.00
103.57     762.00
103.67     727.00
103.77     671.00
103.87     628.75
103.97     570.00
104.07     631.00
104.17     592.00
104.27     590.00
104.37     559.00
104.47     583.00
104.57     576.00
104.67     573.00
104.77     489.57
104.87     500.00
104.97     528.26
105.07     543.00
105.17     536.00
105.27     543.00
105.37     541.23
105.47     571.00
105.57     530.00
105.67     529.42
105.77     561.00
105.87     530.33
105.97     581.01
106.07     530.00
106.17     567.59
106.27     562.94
106.37     602.00
106.47     595.00
106.57     638.03
106.67     641.00
106.77     660.00
106.87     700.00
106.97     683.13
107.07     643.00
107.17     649.00
107.27     653.00
107.37     673.00
107.47     714.06
107.57     750.20
107.67     709.10
107.77     701.77
107.87     671.00
107.97     716.00
108.07     644.00
108.17     713.71
108.27     698.04
108.37     662.65
108.47     717.00
108.57     685.11
108.67     684.00
108.77     685.51
108.87     669.91
108.97     723.46
109.07     655.00
109.17     655.00
109.27     623.88
109.37     676.57
109.47     615.00
109.57     617.00
109.67     587.15
109.77     598.41
109.87     623.00
109.97     566.04
110.07     550.95
110.17     554.00
110.27     581.00
110.37     540.00
110.47     539.00
110.57     554.00
110.67     602.00
110.77     509.11
110.87     570.00
110.97     514.00
111.07     505.09
111.17     531.00
111.27     552.00
111.37     541.00
111.47     518.00
111.57     561.00
111.67     564.86
111.77     568.27
111.87     543.00
111.97     585.00
112.07     599.10
112.17     508.00
112.27     560.00
112.37     563.00
112.47     649.00
112.57     615.00
112.67     615.00
112.77     610.00
112.87     709.00
112.97     697.00
113.07     706.00
113.17     732.00
113.27     736.00
113.37     769.72
113.47     783.00
113.57     855.92
113.67     887.00
113.77     935.00
113.87     938.99
113.97    1044.92
114.07    1049.38
114.17    1073.00
114.27    1181.85
114.37    1224.23
114.47    1258.00
114.57    1469.00
114.67    1613.00
114.77    1747.00
114.87    1964.47
114.97    2085.00
115.07    2403.00
115.17    2636.00
115.27    2810.25
115.37    3125.00
115.47    3522.36
115.57    3764.00
115.67    4034.00
115.77    4425.00
115.87    4913.01
115.97    5425.42
116.07    5634.31
116.17    6059.00
116.27    6247.00
116.37    6684.00
116.47    6716.00
116.57    7010.00
116.67    6952.00
116.77    6857.00
116.87    6824.00
116.97    6544.19
117.07    6417.00
117.17    6238.41
117.27    5785.00
117.37    5232.00
117.47    4952.33
117.57    4718.00
117.67    4283.00
117.77    3993.00
117.87    3634.00
117.97    3306.00
118.07    2795.19
118.17    2578.00
118.27    2228.00
118.37    1977.74
118.47    1767.00
118.57    1545.00
118.67    1352.00
118.77    1242.00
118.87    1114.00
118.97    1018.00
119.07     905.73
119.17     867.98
119.27     869.00
119.37     756.27
119.47     729.00
119.57     689.87
119.67     673.70
119.77     624.00
119.87     620.00
119.97     582.42
120.07     657.84
120.17     572.00
120.27     633.00
120.37     603.00
120.47     570.00
120.57     587.05
120.67     597.95
120.77     644.00
120.87     598.90
120.97     555.18
121.07     590.15
121.17     572.55
121.27     566.39
121.37     569.00
121.47     558.00
121.57     603.00
121.67     608.00
121.77     580.00
121.87     591.00
121.97     565.00
122.07     614.00
122.17     610.59
122.27     582.50
122.37     599.21
122.47     674.14
122.57     592.00
122.67     647.00
122.77     614.00
122.87     664.00
122.97     679.00
123.07     629.63
123.17     682.31
123.27     652.00
123.37     661.08
123.47     642.35
123.57     646.00
123.67     681.01
123.77     647.17
123.87     602.00
123.97     611.00
124.07     621.00
124.17     576.00
124.27     596.00
124.37     645.00
124.47     625.00
124.57     621.00
124.67     551.39
124.77     590.18
124.87     579.00
124.97     550.34
