  9.97     592.00
 10.07     559.00
 10.17     554.93
 10.27     586.00
 10.37     594.00
 10.47     607.42
 10.57     593.00
 10.67     613.00
 10.77     575.00
 10.87     576.00
 10.97     567.00
 11.07     620.00
 11.17     534.56
 11.27     609.28
 11.37     591.00
 11.47     609.00
 11.57     559.57
 11.67     601.26
 11.77     624.00
 11.87     670.00
 11.97     604.24
 12.07     673.41
 12.17     651.54
 12.27     650.00
 12.37     660.00
 12.47     650.01
 12.57     593.00
 12.67     609.68
 12.77     575.00
 12.87     508.00
 12.97     588.15
 13.07     561.63
 13.17     555.00
 13.27     553.57
 13.37     603.00
 13.47     563.00
 13.57     608.55
 13.67     608.00
 13.77     569.02
 13.87     574.19
 13.97     598.00
 14.07     571.54
 14.17     553.00
 14.27     572.00
 14.37     566.45
 14.47     545.59
 14.57     604.49
 14.67     534.15
 14.77     574.92
 14.87     528.00
 14.97     543.00
 15.07     520.00
 15.17     557.00
 15.27     561.00
 15.37     521.00
 15.47     545.00
 15.57     572.00
 15.67     604.73
 15.77     562.60
 15.87     603.00
 15.97     603.00
 16.07     578.76
 16.17     534.00
 16.27     521.21
 16.37     521.67
 16.47     505.00
 16.57     564.00
 16.67     568.00
 16.77     570.00
 16.87     609.00
 16.97     601.68
 17.07     560.50
 17.17     560.83
 17.27     558.38
 17.37     567.00
 17.47     531.42
 17.57     572.05
 17.67     513.00
 17.77     548.00
 17.87     518.00
 17.97     594.00
 18.07     531.00
 18.17     565.80
 18.27     595.00
 18.37     583.00
 18.47     579.00
 18.57     552.00
 18.67     521.00
 18.77     555.00
 18.87     543.98
 18.97     545.00
 19.07     576.00
 19.17     519.00
 19.27     578.20
 19.37     541.00
 19.47     531.00
 19.57     571.64
 19.67     527.93
 19.77     532.00
 19.87     566.00
 19.97     507.81
 20.07     560.00
 20.17     580.40
 20.27     590.82
 20.37     555.00
 20.47     547.20
 20.57     579.15
 20.67     555.00
 20.77     537.00
 20.87     555.00
 20.97     536.00
 21.07     541.00
 21.17     569.00
 21.27     588.32
 21.37     561.00
 21.47     605.00
 21.57     563.00
 21.67     550.00
 21.77     526.87
 21.87     521.89
 21.97     562.47
 22.07     495.00
 22.17     556.31
 22.27     561.00
 22.37     588.40
 22.47     558.00
 22.57     561.00
 22.67     553.09
 22.77     567.61
 22.87     511.53
 22.97     511.00
 23.07     556.00
 23.17     524.00
 23.27     579.87
 23.37     528.00
 23.47     536.50
 23.57     575.00
 23.67     551.00
 23.77     525.00
 23.87     570.00
 23.97     526.81
 24.07     519.48
 24.17     548.00
 24.27     506.25
 24.37     581.00
 24.47     543.00
 24.57     629.00
 24.67     607.00
 24.77     606.83
 24.87     601.00
 24.97     649.23
 25.07     562.32
 25.17     548.13
 25.27     622.00
 25.37     497.62
 25.47     545.00
 25.57     625.00
 25.67     554.00
 25.77     555.00
 25.87     575.00
 25.97     582.00
 26.07     544.00
 26.17     526.00
 26.27     540.83
 26.37     573.00
 26.47     534.00
 26.57     506.54
 26.67     540.00
 26.77     570.00
 26.87     549.00
 26.97     512.12
 27.07     583.96
 27.17     565.00
 27.27     494.78
 27.37     567.00
 27.47     536.00
 27.57     581.00
 27.67     509.45
 27.77     561.00
 27.87     600.68
 27.97     639.28
 28.07     770.00
 28.17     946.23
 28.27    1036.87
 28.37     881.00
 28.47     796.46
 28.57     695.00
 28.67     748.00
 28.77     749.00
 28.87     798.72
 28.97     810.00
 29.07     776.00
 29.17     707.00
 29.27     647.00
 29.37     603.97
 29.47     594.00
 29.57     608.00
 29.67     608.00
 29.77     621.00
 29.87     557.00
 29.97     587.89
 30.07     546.00
 30.17     556.00
 30.27     563.00
 30.37     563.78
 30.47     513.35
 30.57     504.12
 30.67     607.00
 30.77     577.00
 30.87     596.56
 30.97     652.00
 31.07     579.00
 31.17     575.00
 31.27     559.15
 31.37     585.42
 31.47     523.00
 31.57     526.00
 31.67     547.21
 31.77     560.00
 31.87     560.00
 31.97     564.02
 32.07     565.96
 32.17     545.00
 32.27     536.00
 32.37     611.00
 32.47     547.00
 32.57     550.00
 32.67     572.52
 32.77     587.00
 32.87     544.00
 32.97     585.00
 33.07     562.20
 33.17     533.00
 33.27     581.09
 33.37     520.00
 33.47     544.00
 33.57     611.48
 33.67     642.00
 33.77     750.73
 33.87     920.00
 33.97    1025.00
 34.07    1008.00
 34.17    1028.05
 34.27     884.00
 34.37     726.68
 34.47     673.00
 34.57     591.00
 34.67     565.00
 34.77     504.81
 34.87     568.00
 34.97     527.00
 35.07     580.00
 35.17     505.00
 35.27     571.12
 35.37     492.38
 35.47     533.00
 35.57     534.00
 35.67     551.00
 35.77     543.00
 35.87     492.00
 35.97     522.00
 36.07     492.00
 36.17     513.87
 36.27     518.00
 36.37     520.87
 36.47     527.00
 36.57     525.00
 36.67     520.00
 36.77     509.00
 36.87     512.00
 36.97     543.00
 37.07     493.00
 37.17     510.00
 37.27     505.00
 37.37     528.00
 37.47     489.71
 37.57     538.00
 37.67     499.00
 37.77     573.38
 37.87     536.00
 37.97     529.56
 38.07     523.00
 38.17     503.55
 38.27     515.00
 38.37     504.00
 38.47     538.76
 38.57     511.00
 38.67     520.99
 38.77     491.00
 38.87     488.40
 38.97     488.00
 39.07     518.00
 39.17     496.00
 39.27     534.00
 39.37     505.00
 39.47     509.00
 39.57     501.29
 39.67     535.88
 39.77     508.48
 39.87     471.55
 39.97     476.00
 40.07     533.90
 40.17     506.29
 40.27     496.00
 40.37     451.00
 40.47     515.54
 40.57     492.00
 40.67     512.57
 40.77     548.72
 40.87     512.90
 40.97     501.78
 41.07     508.00
 41.17     523.00
 41.27     481.00
 41.37     476.03
 41.47     540.36
 41.57     533.15
 41.67     531.00
 41.77     457.00
 41.87     511.00
 41.97     515.00
 42.07     515.00
 42.17     522.00
 42.27     519.88
 42.37     533.00
 42.47     593.00
 42.57     582.21
 42.67     590.00
 42.77     595.00
 42.87     652.86
 42.97     566.00
 43.07     565.63
 43.17     518.00
 43.27     477.48
 43.37     515.00
 43.47     466.48
 43.57     485.25
 43.67     534.00
 43.77     547.57
 43.87     501.00
 43.97     486.00
 44.07     505.79
 44.17     494.00
 44.27     545.00
 44.37     518.75
 44.47     554.00
 44.57     501.00
 44.67     553.21
 44.77     502.00
 44.87     532.00
 44.97     506.00
 45.07     527.60
 45.17     493.27
 45.27     529.04
 45.37     527.00
 45.47     498.00
 45.57     471.39
 45.67     487.13
 45.77     503.00
 45.87     460.00
 45.97     501.00
 46.07     504.21
 46.17     487.54
 46.27     484.07
 46.37     492.00
 46.47     523.00
 46.57     492.00
 46.67     501.00
 46.77     534.79
 46.87     465.00
 46.97     499.00
 47.07     560.64
 47.17     526.00
 47.27     501.78
 47.37     504.00
 47.47     538.15
 47.57     561.65
 47.67     571.00
 47.77     586.44
 47.87     613.00
 47.97     591.67
 48.07     614.00
 48.17     576.00
 48.27     531.46
 48.37     590.29
 48.47     572.00
 48.57     506.95
 48.67     569.00
 48.77     550.00
 48.87     553.00
 48.97     562.00
 49.07     546.00
 49.17     597.00
 49.27     633.00
 49.37     654.00
 49.47     679.81
 49.57     770.00
 49.67     942.52
 49.77    1127.00
 49.87    1466.35
 49.97    1858.00
 50.07    2337.00
 50.17    2555.00
 50.27    2509.00
 50.37    2250.85
 50.47    1947.00
 50.57    1410.00
 50.67    1042.00
 50.77     834.00
 50.87     674.00
 50.97     668.00
 51.07     640.04
 51.17     602.00
 51.27     631.00
 51.37     559.16
 51.47     568.00
 51.57     596.15
 51.67     560.00
 51.77     537.42
 51.87     555.00
 51.97     554.00
 52.07     544.26
 52.17     540.16
 52.27     541.00
 52.37     556.00
 52.47     549.94
 52.57     575.00
 52.67     528.48
 52.77     625.96
 52.87     652.00
 52.97     740.00
 53.07     781.68
 53.17     965.83
 53.27    1089.00
 53.37    1079.60
 53.47    1167.00
 53.57    1208.00
 53.67    1161.57
 53.77    1007.00
 53.87     892.32
 53.97     788.04
 54.07     641.00
 54.17     639.00
 54.27     598.47
 54.37     542.16
 54.47     575.00
 54.57     569.00
 54.67     571.00
 54.77     545.00
 54.87     599.00
 54.97     573.00
 55.07     565.35
 55.17     512.00
 55.27     589.00
 55.37     582.00
 55.47     575.00
 55.57     553.00
 55.67     603.00
 55.77     602.00
 55.87     610.00
 55.97     595.00
 56.07     690.51
 56.17     797.00
 56.27     857.00
 56.37    1092.43
 56.47    1377.00
 56.57    1804.70
 56.67    2110.00
 56.77    2618.47
 56.87    2640.00
 56.97    2629.00
 57.07    2403.11
 57.17    2095.00
 57.27    1709.00
 57.37    1347.00
 57.47     989.79
 57.57     859.00
 57.67     796.00
 57.77     748.00
 57.87     661.00
 57.97     706.52
 58.07     679.69
 58.17     731.00
 58.27     728.00
 58.37     917.45
 58.47     967.00
 58.57    1144.67
 58.67    1278.00
 58.77    1356.68
 58.87    1436.00
 58.97    1510.00
 59.07    1576.00
 59.17    1469.56
 59.27    1471.00
 59.37    1367.72
 59.47    1289.00
 59.57    1109.89
 59.67    1148.93
 59.77    1080.49
 59.87    1154.00
 59.97    1268.24
 60.07    1430.00
 60.17    1582.23
 60.27    1580.00
 60.37    1495.00
 60.47    1322.84
 60.57    1179.62
 60.67    1079.00
 60.77     896.87
 60.87     828.88
 60.97     724.00
 61.07     679.00
 61.17     639.50
 61.27     651.00
 61.37     669.52
 61.47     702.00
 61.57     701.00
 61.67     885.00
 61.77     921.00
 61.87    1048.00
 61.97    1249.00
 62.07    1337.00
 62.17    1350.00
 62.27    1417.00
 62.37    1275.00
 62.47    1234.00
 62.57    1085.00
 62.67     878.54
 62.77     796.00
 62.87     717.43
 62.97     662.00
 63.07     595.00
 63.17     564.00
 63.27     595.00
 63.37     566.00
 63.47     559.23
 63.57     566.12
 63.67     555.00
 63.77     624.83
 63.87     610.63
 63.97     682.00
 64.07     638.46
 64.17     808.63
 64.27     812.00
 64.37     929.35
 64.47     983.00
 64.57    1061.00
 64.67     958.54
 64.77    1041.00
 64.87     965.06
 64.97     904.00
 65.07     840.00
 65.17     757.00
 65.27     759.00
 65.37     690.00
 65.47     592.00
 65.57     625.00
 65.67     637.54
 65.77     556.00
 65.87     624.26
 65.97     539.00
 66.07     578.00
 66.17     602.01
 66.27     568.06
 66.37     576.00
 66.47     577.19
 66.57     547.00
 66.67     532.23
 66.77     585.38
 66.87     637.80
 66.97     623.00
 67.07     572.00
 67.17     704.00
 67.27     726.00
 67.37     867.00
 67.47    1029.44
 67.57    1282.10
 67.67    1563.00
 67.77    1771.00
 67.87    2131.13
 67.97    2347.00
 68.07    2511.00
 68.17    2448.66
 68.27    2229.00
 68.37    2134.00
 68.47    1776.40
 68.57    1454.50
 68.67    1240.00
 68.77    1035.33
 68.87     867.37
 68.97     810.00
 69.07     701.00
 69.17     693.66
 69.27     602.00
 69.37     591.00
 69.47     588.70
 69.57     541.00
 69.67     589.00
 69.77     620.00
 69.87     615.66
 69.97     571.00
 70.07     567.00
 70.17     564.00
 70.27     519.70
 70.37     542.40
 70.47     537.00
 70.57     546.27
 70.67     561.00
 70.77     580.00
 70.87     583.00
 70.97     649.26
 71.07     693.74
 71.17     786.16
 71.27     855.17
 71.37     911.00
 71.47    1022.72
 71.57    1194.00
 71.67    1430.00
 71.77    1622.00
 71.87    1824.00
 71.97    1811.51
 72.07    1932.00
 72.17    1877.00
 72.27    1714.06
 72.37    1555.67
 72.47    1408.98
 72.57    1389.28
 72.67    1219.19
 72.77    1051.00
 72.87     893.00
 72.97     871.14
 73.07     796.00
 73.17     838.16
 73.27     641.00
 73.37     662.12
 73.47     680.21
 73.57     694.52
 73.67     565.00
 73.77     604.00
 73.87     612.00
 73.97     560.00
 74.07     545.16
 74.17     569.00
 74.27     605.00
 74.37     568.64
 74.47     618.00
 74.57     594.75
 74.67     523.74
 74.77     574.00
 74.87     673.00
 74.97     639.00
 75.07     622.00
 75.17     540.00
 75.27     548.00
 75.37     570.00
 75.47     558.00
 75.57     570.21
 75.67     598.00
 75.77     552.00
 75.87     593.00
 75.97     624.00
 76.07     639.00
 76.17     615.61
 76.27     710.00
 76.37     743.00
 76.47     734.00
 76.57     738.00
 76.67     700.00
 76.77     728.74
 76.87     670.00
 76.97     649.00
 77.07     617.00
 77.17     559.00
 77.27     630.53
 77.37     599.43
 77.47     565.00
 77.57     511.42
 77.67     516.00
 77.77     554.00
 77.87     582.80
 77.97     530.00
 78.07     575.17
 78.17     544.00
 78.27     537.00
 78.37     509.94
 78.47     521.08
 78.57     568.29
 78.67     502.00
 78.77     549.00
 78.87     500.61
 78.97     503.67
 79.07     514.22
 79.17     510.00
 79.27     515.55
 79.37     555.00
 79.47     566.45
 79.57     511.00
 79.67     547.82
 79.77     567.00
 79.87     554.00
 79.97     536.00
 80.07     586.03
 80.17     544.00
 80.27     600.31
 80.37     599.44
 80.47     574.84
 80.57     618.00
 80.67     639.00
 80.77     666.46
 80.87     670.00
 80.97     645.23
 81.07     735.00
 81.17     754.00
 81.27     801.00
 81.37     798.24
 81.47     753.00
 81.57     768.33
 81.67     755.00
 81.77     713.00
 81.87     731.00
 81.97     703.00
 82.07     709.05
 82.17     673.00
 82.27     656.45
 82.37     625.28
 82.47     592.00
 82.57     602.00
 82.67     544.00
 82.77     579.00
 82.87     540.00
 82.97     580.00
 83.07     541.00
 83.17     588.00
 83.27     587.00
 83.37     567.65
 83.47     535.00
 83.57     560.80
 83.67     570.00
 83.77     561.00
 83.87     559.00
 83.97     539.71
 84.07     546.00
 84.17     569.00
 84.27     555.00
 84.37     573.00
 84.47     554.12
 84.57     524.00
 84.67     512.00
 84.77     583.09
 84.87     532.00
 84.97     554.00
 85.07     546.00
 85.17     556.00
 85.27     491.00
 85.37     513.99
 85.47     513.00
 85.57     472.00
 85.67     537.50
 85.77     516.00
 85.87     544.00
 85.97     541.00
 86.07     579.87
 86.17     502.56
 86.27     503.29
 86.37     559.00
 86.47     580.51
 86.57     510.00
 86.67     585.00
 86.77     553.70
 86.87     560.79
 86.97     588.00
 87.07     616.90
 87.17     600.57
 87.27     688.00
 87.37     656.00
 87.47     644.00
 87.57     627.00
 87.67     674.00
 87.77     640.00
 87.87     650.00
 87.97     591.65
 88.07     629.00
 88.17     628.90
 88.27     588.00
 88.37     571.00
 88.47     588.00
 88.57     574.00
 88.67     583.00
 88.77     593.33
 88.87     610.00
 88.97     616.00
 89.07     603.13
 89.17     621.00
 89.27     621.00
 89.37     596.61
 89.47     540.00
 89.57     604.98
 89.67     596.56
 89.77     599.46
 89.87     538.00
 89.97     543.00
 90.07     540.00
 90.17     543.00
 90.27     487.00
 90.37     539.00
 90.47     549.00
 90.57     553.00
 90.67     506.00
 90.77     527.00
 90.87     544.00
 90.97     538.00
 91.07     543.86
 91.17     500.00
 91.27     505.58
 91.37     546.67
 91.47     489.00
 91.57     515.31
 91.67     531.00
 91.77     545.00
 91.87     583.18
 91.97     545.00
 92.07     596.63
 92.17     602.73
 92.27     602.00
 92.37     555.70
 92.47     579.17
 92.57     675.00
 92.67     666.00
 92.77     668.43
 92.87     690.00
 92.97     748.00
 93.07     710.25
 93.17     773.00
 93.27     751.00
 93.37     901.00
 93.47     803.22
 93.57     789.00
 93.67     763.99
 93.77     832.84
 93.87     860.00
 93.97     846.00
 94.07     891.00
 94.17     879.00
 94.27     857.00
 94.37     864.82
 94.47     906.00
 94.57     845.04
 94.67     829.92
 94.77     947.53
 94.87     912.00
 94.97     880.00
 95.07     912.03
 95.17     820.24
 95.27     818.00
 95.37     859.00
 95.47     802.15
 95.57     759.00
 95.67     732.00
 95.77     728.82
 95.87     720.00
 95.97     691.10
 96.07     726.86
 96.17     679.00
 96.27     684.11
 96.37     738.00
 96.47     812.00
 96.57     894.99
 96.67     964.33
 96.77     956.00
 96.87    1065.99
 96.97    1097.00
 97.07    1178.00
 97.17    1218.00
 97.27    1288.16
 97.37    1350.00
 97.47    1418.00
 97.57    1417.24
 97.67    1468.51
 97.77    1423.75
 97.87    1306.00
 97.97    1288.00
 98.07    1150.04
 98.17    1228.00
 98.27    1086.00
 98.37    1028.87
 98.47     923.00
 98.57     940.00
 98.67     873.00
 98.77     851.23
 98.87     814.00
 98.97     820.16
 99.07     818.69
 99.17     803.00
 99.27     914.00
 99.37     926.86
 99.47    1077.00
 99.57    1094.00
 99.67    1161.00
 99.77    1242.00
 99.87    1348.00
 99.97    1453.45
100.07    1590.00
100.17    1723.91
100.27    1841.00
100.37    1848.49
100.47    1999.00
100.57    2058.00
100.67    2052.00
100.77    2084.00
100.87    2088.35
100.97    2042.00
101.07    1987.00
101.17    1946.00
101.27    1882.56
101.37    1710.00
101.47    1648.00
101.57    1515.00
101.67    1441.00
101.77    1396.00
101.87    1269.00
101.97    1296.93
102.07    1178.23
102.17    1179.94
102.27    1132.00
102.37    1125.00
102.47    1049.00
102.57    1088.00
102.67    1043.00
102.77    1065.00
102.87    1000.00
102.97     996.02
103.07     907.00
103.17     886.00
103.27     841.00
103.37     770.34
103.47     786.00
103.57     724.87
103.67     699.00
103.77     663.00
103.87     642.00
103.97     635.00
104.07     556.00
104.17     598.00
104.27     551.00
104.37     580.00
104.47     562.00
104.57     577.00
104.67     589.00
104.77     557.47
104.87     497.00
104.97     576.19
105.07     564.87
105.17     514.00
105.27     538.00
105.37     545.00
105.47     574.00
105.57     584.58
105.67     582.01
105.77     549.00
105.87     585.00
105.97     563.00
106.07     621.00
106.17     552.00
106.27     548.00
106.37     630.00
106.47     550.00
106.57     596.00
106.67     609.00
106.77     648.00
106.87     663.00
106.97     634.00
107.07     634.00
107.17     645.00
107.27     686.00
107.37     686.00
107.47     704.87
107.57     734.56
107.67     663.26
107.77     668.97
107.87     674.00
107.97     643.00
108.07     704.78
108.17     728.00
108.27     698.00
108.37     724.00
108.47     656.00
108.57     690.00
108.67     677.19
108.77     699.00
108.87     703.00
108.97     672.25
109.07     665.59
109.17     645.00
109.27     705.40
109.37     705.71
109.47     655.00
109.57     666.43
109.67     595.00
109.77     608.00
109.87     591.74
109.97     585.00
110.07     631.00
110.17     548.82
110.27     514.55
110.37     556.91
110.47     560.53
110.57     516.00
110.67     518.00
110.77     567.00
110.87     552.34
110.97     550.00
111.07     541.00
111.17     516.00
111.27     552.00
111.37     557.00
111.47     589.03
111.57     550.00
111.67     534.00
111.77     549.00
111.87     547.00
111.97     551.82
112.07     569.00
112.17     609.00
112.27     607.99
112.37     533.91
112.47     550.38
112.57     587.45
112.67     630.00
112.77     594.00
112.87     637.73
112.97     615.65
113.07     676.00
113.17     714.66
113.27     710.00
113.37     758.00
113.47     796.00
113.57     833.15
113.67     903.94
113.77     884.71
113.87     928.00
113.97     963.00
114.07    1000.47
114.17    1064.00
114.27    1179.31
114.37    1244.00
114.47    1393.30
114.57    1442.00
114.67    1561.64
114.77    1705.00
114.87    1890.00
114.97    2153.00
115.07    2282.55
115.17    2547.41
115.27    2812.00
115.37    3143.00
115.47    3460.59
115.57    3886.99
115.67    4072.25
115.77    4403.00
115.87    5024.70
115.97    5222.18
116.07    5607.00
116.17    6051.00
116.27    6309.00
116.37    6485.86
116.47    6754.00
116.57    6986.08
116.67    6923.00
116.77    6993.06
116.87    6774.95
116.97    6715.00
117.07    6505.00
117.17    6292.93
117.27    5764.00
117.37    5242.00
117.47    5067.00
117.57    4560.00
117.67    4284.00
117.77    3916.42
117.87    3741.00
117.97    3208.38
118.07    2900.00
118.17    2488.17
118.27    2143.52
118.37    2047.00
118.47    1689.00
118.57    1590.00
118.67    1422.83
118.77    1178.00
118.87    1131.00
118.97    1036.00
119.07     922.00
119.17     932.81
119.27     783.00
119.37     752.00
119.47     755.00
119.57     659.16
119.67     674.49
119.77     618.00
119.87     682.08
119.97     578.00
120.07     583.00
120.17     620.00
120.27     573.00
120.37     585.00
120.47     586.75
120.57     559.41
120.67     604.00
120.77     562.25
120.87     596.00
120.97     575.00
121.07     578.73
121.17     574.00
121.27     563.00
121.37     554.41
121.47     591.36
121.57     621.00
121.67     540.60
121.77     593.00
121.87     608.00
121.97     593.56
122.07     625.00
122.17     618.00
122.27     625.00
122.37     609.00
122.47     612.00
122.57     631.00
122.67     648.00
122.77     668.00
122.87     640.00
122.97     653.00
123.07     613.72
123.17     641.00
123.27     662.00
123.37     649.75
123.47     652.00
123.57     645.00
123.67     653.00
123.77     680.11
123.87     575.00
123.97     646.00
124.07     624.97
124.17     601.00
124.27     571.05
124.37     598.12
124.47     607.00
124.57     618.00
124.67     639.00
124.77     594.00
124.87     568.82
124.97     610.07
