  9.97     622.00
 10.07     685.00
 10.17     729.00
 10.27     615.34
 10.37     680.81
 10.47     614.00
 10.57     669.00
 10.67     635.00
 10.77     686.00
 10.87     696.79
 10.97     693.00
 11.07     682.00
 11.17     618.96
 11.27     697.00
 11.37     663.00
 11.47     604.46
 11.57     623.35
 11.67     680.00
 11.77     607.51
 11.87     714.00
 11.97     695.74
 12.07     757.93
 12.17     772.02
 12.27     828.00
 12.37     742.70
 12.47     762.00
 12.57     716.94
 12.67     643.00
 12.77     702.13
 12.87     631.00
 12.97     682.00
 13.07     620.00
 13.17     642.15
 13.27     587.00
 13.37     628.75
 13.47     597.75
 13.57     656.11
 13.67     595.00
 13.77     646.00
 13.87     641.00
 13.97     628.16
 14.07     639.15
 14.17     633.00
 14.27     629.00
 14.37     598.00
 14.47     618.00
 14.57     593.00
 14.67     639.13
 14.77     645.00
 14.87     624.00
 14.97     674.60
 15.07     626.00
 15.17     558.00
 15.27     607.00
 15.37     607.78
 15.47     581.00
 15.57     676.85
 15.67     585.45
 15.77     612.00
 15.87     632.11
 15.97     613.00
 16.07     636.00
 16.17     661.05
 16.27     594.00
 16.37     583.29
 16.47     645.00
 16.57     631.00
 16.67     606.00
 16.77     588.00
 16.87     623.36
 16.97     545.00
 17.07     630.00
 17.17     673.00
 17.27     614.00
 17.37     583.35
 17.47     551.00
 17.57     584.00
 17.67     593.64
 17.77     617.00
 17.87     669.51
 17.97     611.00
 18.07     603.00
 18.17     620.00
 18.27     600.46
 18.37     610.00
 18.47     627.87
 18.57     606.67
 18.67     624.97
 18.77     641.00
 18.87     588.91
 18.97     596.00
 19.07     655.51
 19.17     577.00
 19.27     609.00
 19.37     528.00
 19.47     616.50
 19.57     592.00
 19.67     630.00
 19.77     641.00
 19.87     577.00
 19.97     603.00
 20.07     580.00
 20.17     595.84
 20.27     652.00
 20.37     622.25
 20.47     592.00
 20.57     591.65
 20.67     598.00
 20.77     600.00
 20.87     610.00
 20.97     645.91
 21.07     657.01
 21.17     598.00
 21.27     619.00
 21.37     620.71
 21.47     630.59
 21.57     577.50
 21.67     608.00
 21.77     627.00
 21.87     581.00
 21.97     566.00
 22.07     618.00
 22.17     652.00
 22.27     615.00
 22.37     592.00
 22.47     575.00
 22.57     581.33
 22.67     603.00
 22.77     598.00
 22.87     603.00
 22.97     596.00
 23.07     589.00
 23.17     619.00
 23.27     585.31
 23.37     587.00
 23.47     621.00
 23.57     614.00
 23.67     645.00
 23.77     575.00
 23.87     572.00
 23.97     655.00
 24.07     614.00
 24.17     617.00
 24.27     645.00
 24.37     604.00
 24.47     642.00
 24.57     624.00
 24.67     615.99
 24.77     708.00
 24.87     776.00
 24.97     738.00
 25.07     728.84
 25.17     648.00
 25.27     656.00
 25.37     619.00
 25.47     616.79
 25.57     666.00
 25.67     625.47
 25.77     681.00
 25.87     654.48
 25.97     651.00
 26.07     620.00
 26.17     642.00
 26.27     616.00
 26.37     587.50
 26.47     603.00
 26.57     649.74
 26.67     619.82
 26.77     583.00
 26.87     654.00
 26.97     689.00
 27.07     623.00
 27.17     641.00
 27.27     679.84
 27.37     653.00
 27.47     727.00
 27.57     764.00
 27.67     683.15
 27.77     809.70
 27.87     909.05
 27.97    1034.00
 28.07    1462.00
 28.17    2150.00
 28.27    3040.68
 28.37    3448.00
 28.47    3439.26
 28.57    2839.00
 28.67    2297.17
 28.77    1721.00
 28.87    1781.00
 28.97    2005.81
 29.07    2283.00
 29.17    2125.00
 29.27    1905.00
 29.37    1491.04
 29.47    1111.60
 29.57     917.49
 29.67     830.06
 29.77     800.00
 29.87     777.00
 29.97     706.00
 30.07     660.68
 30.17     772.00
 30.27     576.88
 30.37     599.18
 30.47     691.00
 30.57     649.00
 30.67     690.00
 30.77     689.00
 30.87     646.00
 30.97     740.00
 31.07     731.00
 31.17     721.07
 31.27     719.00
 31.37     608.26
 31.47     637.00
 31.57     637.00
 31.67     637.51
 31.77     663.00
 31.87     628.00
 31.97     586.00
 32.07     607.00
 32.17     607.00
 32.27     594.00
 32.37     632.34
 32.47     581.26
 32.57     608.00
 32.67     599.00
 32.77     624.24
 32.87     558.74
 32.97     533.94
 33.07     604.96
 33.17     574.88
 33.27     579.00
 33.37     587.15
 33.47     619.00
 33.57     645.00
 33.67     581.00
 33.77     702.00
 33.87     740.00
 33.97     868.00
 34.07     967.45
 34.17    1069.60
 34.27    1050.15
 34.37    1052.00
 34.47     873.00
 34.57     788.30
 34.67     673.00
 34.77     632.00
 34.87     628.00
 34.97     564.00
 35.07     576.74
 35.17     578.53
 35.27     614.84
 35.37     550.00
 35.47     545.00
 35.57     601.29
 35.67     577.00
 35.77     565.00
 35.87     527.00
 35.97     584.00
 36.07     574.00
 36.17     523.15
 36.27     578.00
 36.37     519.00
 36.47     556.00
 36.57     601.00
 36.67     563.00
 36.77     553.00
 36.87     571.00
 36.97     519.92
 37.07     581.90
 37.17     581.00
 37.27     548.00
 37.37     550.00
 37.47     566.00
 37.57     556.37
 37.67     552.11
 37.77     568.00
 37.87     561.00
 37.97     580.00
 38.07     638.00
 38.17     605.86
 38.27     624.24
 38.37     603.00
 38.47     603.00
 38.57     588.00
 38.67     557.00
 38.77     538.00
 38.87     558.00
 38.97     499.00
 39.07     547.00
 39.17     543.00
 39.27     533.44
 39.37     539.47
 39.47     572.34
 39.57     553.00
 39.67     546.60
 39.77     575.85
 39.87     545.00
 39.97     598.23
 40.07     578.00
 40.17     539.00
 40.27     498.00
 40.37     513.35
 40.47     555.00
 40.57     506.00
 40.67     594.57
 40.77     537.00
 40.87     540.00
 40.97     530.00
 41.07     595.86
 41.17     527.00
 41.27     551.00
 41.37     495.00
 41.47     477.00
 41.57     528.00
 41.67     538.00
 41.77     519.79
 41.87     583.03
 41.97     555.79
 42.07     546.00
 42.17     626.00
 42.27     513.00
 42.37     527.00
 42.47     566.06
 42.57     608.25
 42.67     571.00
 42.77     662.00
 42.87     630.00
 42.97     623.00
 43.07     637.00
 43.17     604.45
 43.27     572.00
 43.37     552.00
 43.47     612.10
 43.57     563.94
 43.67     497.00
 43.77     568.75
 43.87     563.00
 43.97     529.00
 44.07     494.00
 44.17     609.00
 44.27     556.00
 44.37     500.95
 44.47     589.06
 44.57     559.70
 44.67     558.00
 44.77     599.00
 44.87     560.00
 44.97     573.00
 45.07     567.46
 45.17     555.37
 45.27     620.00
 45.37     530.00
 45.47     513.34
 45.57     507.00
 45.67     540.00
 45.77     554.00
 45.87     552.00
 45.97     532.13
 46.07     528.00
 46.17     533.00
 46.27     601.00
 46.37     547.00
 46.47     562.00
 46.57     545.00
 46.67     570.14
 46.77     559.95
 46.87     571.00
 46.97     565.00
 47.07     556.40
 47.17     537.92
 47.27     574.00
 47.37     537.12
 47.47     559.01
 47.57     567.00
 47.67     576.00
 47.77     579.69
 47.87     652.32
 47.97     590.34
 48.07     585.53
 48.17     693.83
 48.27     642.00
 48.37     638.00
 48.47     576.00
 48.57     578.00
 48.67     561.00
 48.77     543.55
 48.87     564.31
 48.97     618.90
 49.07     624.63
 49.17     573.14
 49.27     621.00
 49.37     639.52
 49.47     612.00
 49.57     706.16
 49.67     684.00
 49.77     792.82
 49.87     930.00
 49.97    1068.00
 50.07    1461.00
 50.17    1769.00
 50.27    2134.00
 50.37    2462.00
 50.47    2661.00
 50.57    2569.00
 50.67    2170.00
 50.77    1813.00
 50.87    1483.89
 50.97    1115.37
 51.07     892.00
 51.17     816.00
 51.27     705.00
 51.37     675.50
 51.47     711.00
 51.57     719.12
 51.67     636.00
 51.77     650.00
 51.87     642.00
 51.97     622.00
 52.07     613.00
 52.17     591.77
 52.27     619.83
 52.37     610.00
 52.47     645.89
 52.57     629.53
 52.67     574.00
 52.77     604.00
 52.87     643.00
 52.97     604.10
 53.07     675.00
 53.17     695.75
 53.27     759.00
 53.37     882.00
 53.47     961.00
 53.57    1106.88
 53.67    1184.00
 53.77    1255.88
 53.87    1230.76
 53.97    1202.02
 54.07    1050.00
 54.17     987.00
 54.27     884.00
 54.37     835.52
 54.47     745.00
 54.57     670.00
 54.67     656.00
 54.77     629.00
 54.87     631.99
 54.97     586.53
 55.07     696.00
 55.17     597.00
 55.27     660.00
 55.37     628.75
 55.47     609.96
 55.57     656.36
 55.67     649.00
 55.77     636.00
 55.87     699.00
 55.97     674.00
 56.07     696.81
 56.17     689.00
 56.27     732.00
 56.37     820.21
 56.47     901.00
 56.57    1090.00
 56.67    1314.00
 56.77    1637.71
 56.87    1941.00
 56.97    2257.00
 57.07    2526.55
 57.17    2466.72
 57.27    2584.38
 57.37    2398.10
 57.47    2087.00
 57.57    1714.00
 57.67    1384.00
 57.77    1173.65
 57.87     995.00
 57.97     874.13
 58.07     861.00
 58.17     778.46
 58.27     774.98
 58.37     784.00
 58.47     827.95
 58.57     811.00
 58.67     891.00
 58.77     992.00
 58.87    1050.89
 58.97    1077.00
 59.07    1176.00
 59.17    1228.22
 59.27    1293.00
 59.37    1278.26
 59.47    1287.00
 59.57    1237.31
 59.67    1184.00
 59.77    1134.92
 59.87    1236.00
 59.97    1237.00
 60.07    1166.24
 60.17    1322.00
 60.27    1379.00
 60.37    1443.00
 60.47    1583.00
 60.57    1575.00
 60.67    1607.00
 60.77    1393.00
 60.87    1342.00
 60.97    1189.99
 61.07    1064.00
 61.17     917.00
 61.27     835.81
 61.37     768.71
 61.47     811.00
 61.57     679.56
 61.67     779.00
 61.77     844.00
 61.87     894.35
 61.97     923.00
 62.07    1065.00
 62.17    1182.00
 62.27    1359.62
 62.37    1455.47
 62.47    1395.00
 62.57    1479.00
 62.67    1444.00
 62.77    1319.80
 62.87    1254.66
 62.97    1027.23
 63.07     842.00
 63.17     786.00
 63.27     721.00
 63.37     693.00
 63.47     687.00
 63.57     644.61
 63.67     652.00
 63.77     624.12
 63.87     628.75
 63.97     666.00
 64.07     637.47
 64.17     717.00
 64.27     741.00
 64.37     792.93
 64.47     792.57
 64.57     941.00
 64.67     966.60
 64.77    1169.00
 64.87    1146.00
 64.97    1171.00
 65.07    1217.98
 65.17    1229.00
 65.27    1119.73
 65.37    1062.00
 65.47    1010.00
 65.57     954.00
 65.67     841.00
 65.77     781.00
 65.87     778.00
 65.97     759.00
 66.07     714.60
 66.17     656.00
 66.27     657.72
 66.37     628.00
 66.47     658.05
 66.57     597.00
 66.67     658.00
 66.77     615.00
 66.87     634.90
 66.97     651.00
 67.07     673.47
 67.17     639.00
 67.27     673.00
 67.37     673.11
 67.47     757.00
 67.57     885.82
 67.67     931.00
 67.77    1093.00
 67.87    1219.00
 67.97    1439.00
 68.07    1700.00
 68.17    1958.00
 68.27    2107.00
 68.37    2303.00
 68.47    2365.80
 68.57    2356.73
 68.67    2273.00
 68.77    2018.22
 68.87    1838.00
 68.97    1554.00
 69.07    1349.60
 69.17    1123.00
 69.27    1027.29
 69.37     863.00
 69.47     810.00
 69.57     703.00
 69.67     763.38
 69.77     711.72
 69.87     695.49
 69.97     665.00
 70.07     626.58
 70.17     609.00
 70.27     600.61
 70.37     666.00
 70.47     646.55
 70.57     645.28
 70.67     595.00
 70.77     649.00
 70.87     632.20
 70.97     665.14
 71.07     638.00
 71.17     712.98
 71.27     743.00
 71.37     765.23
 71.47     780.00
 71.57     831.00
 71.67     864.78
 71.77    1070.00
 71.87    1149.00
 71.97    1302.00
 72.07    1469.65
 72.17    1701.36
 72.27    1782.00
 72.37    1976.00
 72.47    1957.00
 72.57    1872.48
 72.67    1802.00
 72.77    1643.87
 72.87    1480.00
 72.97    1298.11
 73.07    1126.33
 73.17    1046.00
 73.27     924.67
 73.37     830.00
 73.47     753.00
 73.57     735.76
 73.67     655.43
 73.77     644.00
 73.87     666.00
 73.97     636.32
 74.07     633.00
 74.17     660.00
 74.27     598.00
 74.37     633.95
 74.47     583.73
 74.57     573.92
 74.67     566.89
 74.77     661.94
 74.87     641.00
 74.97     670.54
 75.07     643.26
 75.17     717.00
 75.27     666.00
 75.37     672.00
 75.47     625.45
 75.57     663.00
 75.67     676.00
 75.77     623.00
 75.87     574.47
 75.97     566.00
 76.07     634.00
 76.17     654.00
 76.27     655.00
 76.37     701.00
 76.47     650.76
 76.57     707.00
 76.67     730.65
 76.77     799.16
 76.87     812.00
 76.97     860.00
 77.07     792.00
 77.17     818.00
 77.27     821.00
 77.37     784.00
 77.47     758.00
 77.57     737.26
 77.67     676.07
 77.77     638.00
 77.87     609.00
 77.97     591.00
 78.07     563.57
 78.17     639.85
 78.27     614.00
 78.37     543.58
 78.47     596.44
 78.57     526.31
 78.67     573.00
 78.77     538.00
 78.87     617.13
 78.97     603.05
 79.07     554.00
 79.17     570.41
 79.27     555.57
 79.37     569.00
 79.47     569.00
 79.57     525.00
 79.67     597.00
 79.77     565.00
 79.87     564.00
 79.97     614.83
 80.07     541.99
 80.17     579.00
 80.27     547.00
 80.37     611.00
 80.47     642.00
 80.57     565.00
 80.67     681.00
 80.77     751.81
 80.87     680.34
 80.97     750.00
 81.07     764.00
 81.17     836.61
 81.27     943.25
 81.37     908.00
 81.47     957.00
 81.57     960.00
 81.67    1014.61
 81.77    1004.00
 81.87     995.91
 81.97     919.46
 82.07     915.00
 82.17     912.00
 82.27     854.46
 82.37     792.00
 82.47     809.73
 82.57     723.00
 82.67     768.00
 82.77     699.00
 82.87     693.00
 82.97     666.00
 83.07     597.00
 83.17     620.00
 83.27     578.00
 83.37     598.00
 83.47     566.86
 83.57     572.00
 83.67     559.53
 83.77     571.56
 83.87     596.00
 83.97     567.00
 84.07     564.00
 84.17     585.00
 84.27     594.00
 84.37     589.60
 84.47     586.29
 84.57     595.00
 84.67     570.00
 84.77     583.00
 84.87     606.45
 84.97     622.78
 85.07     596.00
 85.17     634.79
 85.27     590.00
 85.37     529.03
 85.47     560.00
 85.57     530.00
 85.67     530.92
 85.77     589.17
 85.87     577.00
 85.97     539.22
 86.07     558.00
 86.17     565.00
 86.27     592.26
 86.37     584.00
 86.47     565.00
 86.57     592.00
 86.67     564.00
 86.77     542.51
 86.87     609.00
 86.97     594.00
 87.07     621.00
 87.17     577.00
 87.27     653.19
 87.37     639.02
 87.47     685.00
 87.57     693.00
 87.67     682.00
 87.77     726.00
 87.87     689.00
 87.97     662.00
 88.07     712.00
 88.17     660.73
 88.27     672.37
 88.37     655.00
 88.47     614.40
 88.57     654.00
 88.67     623.00
 88.77     593.38
 88.87     619.59
 88.97     588.00
 89.07     612.73
 89.17     601.00
 89.27     604.00
 89.37     607.00
 89.47     616.00
 89.57     617.00
 89.67     590.11
 89.77     640.00
 89.87     633.74
 89.97     580.69
 90.07     692.00
 90.17     620.00
 90.27     637.00
 90.37     644.00
 90.47     593.00
 90.57     576.00
 90.67     545.09
 90.77     585.00
 90.87     559.00
 90.97     566.00
 91.07     562.48
 91.17     559.87
 91.27     529.43
 91.37     547.00
 91.47     556.00
 91.57     582.00
 91.67     559.00
 91.77     563.00
 91.87     585.21
 91.97     550.87
 92.07     572.00
 92.17     556.00
 92.27     556.00
 92.37     574.39
 92.47     580.99
 92.57     569.00
 92.67     617.85
 92.77     634.08
 92.87     578.72
 92.97     587.00
 93.07     635.33
 93.17     707.30
 93.27     640.01
 93.37     674.00
 93.47     686.00
 93.57     736.00
 93.67     727.00
 93.77     773.00
 93.87     734.50
 93.97     829.00
 94.07     872.00
 94.17     815.00
 94.27     853.00
 94.37     821.00
 94.47     839.00
 94.57     895.00
 94.67     936.00
 94.77     892.00
 94.87     886.66
 94.97     986.50
 95.07     992.00
 95.17     944.00
 95.27     922.75
 95.37     972.80
 95.47     968.00
 95.57     908.73
 95.67     923.00
 95.77     897.89
 95.87     920.57
 95.97     814.39
 96.07     852.00
 96.17     790.09
 96.27     775.00
 96.37     748.00
 96.47     784.40
 96.57     737.59
 96.67     792.00
 96.77     785.00
 96.87     850.00
 96.97     809.01
 97.07     909.00
 97.17     949.88
 97.27    1012.00
 97.37    1090.00
 97.47    1139.00
 97.57    1283.33
 97.67    1297.00
 97.77    1359.00
 97.87    1476.00
 97.97    1522.59
 98.07    1525.89
 98.17    1563.52
 98.27    1516.00
 98.37    1523.00
 98.47    1468.00
 98.57    1422.95
 98.67    1393.00
 98.77    1235.00
 98.87    1242.83
 98.97    1154.96
 99.07    1042.00
 99.17    1067.00
 99.27    1040.20
 99.37     908.00
 99.47     890.30
 99.57     902.49
 99.67     975.30
 99.77     970.00
 99.87    1005.00
 99.97    1005.49
100.07    1098.00
100.17    1155.76
100.27    1243.00
100.37    1349.00
100.47    1313.77
100.57    1485.00
100.67    1580.00
100.77    1616.39
100.87    1721.00
100.97    1907.00
101.07    1966.00
101.17    2041.00
101.27    2039.00
101.37    2041.07
101.47    2109.92
101.57    1991.00
101.67    2048.17
101.77    1934.00
101.87    1874.84
101.97    1864.00
102.07    1791.35
102.17    1711.65
102.27    1698.29
102.37    1556.00
102.47    1454.38
102.57    1423.00
102.67    1332.77
102.77    1301.00
102.87    1294.00
102.97    1229.00
103.07    1162.00
103.17    1245.50
103.27    1085.00
103.37    1112.00
103.47    1060.00
103.57    1071.01
103.67    1023.00
103.77     962.30
103.87     981.00
103.97     916.43
104.07     873.97
104.17     841.00
104.27     798.00
104.37     791.00
104.47     733.00
104.57     651.80
104.67     705.00
104.77     678.00
104.87     652.00
104.97     596.24
105.07     632.00
105.17     573.16
105.27     564.30
105.37     556.34
105.47     582.00
105.57     602.00
105.67     575.00
105.77     600.00
105.87     563.38
105.97     588.00
106.07     587.02
106.17     617.00
106.27     614.51
106.37     624.00
106.47     542.55
106.57     566.00
106.67     599.00
106.77     628.00
106.87     634.00
106.97     585.00
107.07     633.00
107.17     661.43
107.27     622.00
107.37     701.00
107.47     692.00
107.57     694.00
107.67     675.12
107.77     716.00
107.87     662.00
107.97     761.60
108.07     730.93
108.17     727.00
108.27     714.00
108.37     692.00
108.47     731.00
108.57     688.00
108.67     787.00
108.77     752.37
108.87     712.00
108.97     703.00
109.07     685.00
109.17     679.00
109.27     749.19
109.37     675.10
109.47     769.31
109.57     697.00
109.67     743.00
109.77     699.58
109.87     685.28
109.97     680.22
110.07     732.74
110.17     719.00
110.27     727.00
110.37     660.00
110.47     677.00
110.57     624.65
110.67     686.00
110.77     664.55
110.87     580.73
110.97     609.00
111.07     576.00
111.17     645.00
111.27     604.00
111.37     662.00
111.47     594.00
111.57     534.00
111.67     604.00
111.77     597.00
111.87     573.00
111.97     569.00
112.07     556.00
112.17     583.00
112.27     567.00
112.37     562.00
112.47     581.30
112.57     602.00
112.67     577.00
112.77     623.09
112.87     549.59
112.97     589.00
113.07     548.00
113.17     600.37
113.27     600.00
113.37     564.09
113.47     605.35
113.57     602.28
113.67     638.36
113.77     656.48
113.87     640.00
113.97     597.04
114.07     647.00
114.17     704.96
114.27     624.62
114.37     690.00
114.47     717.00
114.57     732.18
114.67     811.00
114.77     883.52
114.87     903.00
114.97     956.17
115.07     969.00
115.17    1103.00
115.27    1276.00
115.37    1309.00
115.47    1539.00
115.57    1733.00
115.67    1919.00
115.77    2140.00
115.87    2372.00
115.97    2658.00
116.07    2879.05
116.17    3263.40
116.27    3676.00
116.37    3929.41
116.47    4235.00
116.57    4685.00
116.67    5122.13
116.77    5366.60
116.87    5737.74
116.97    6114.73
117.07    6532.00
117.17    6799.00
117.27    7127.96
117.37    7158.65
117.47    7165.00
117.57    7110.87
117.67    7244.00
117.77    7014.00
117.87    6713.26
117.97    6467.00
118.07    6225.00
118.17    6089.67
118.27    5617.00
118.37    5307.00
118.47    4890.00
118.57    4535.00
118.67    4141.00
118.77    3742.68
118.87    3447.00
118.97    3161.91
119.07    2891.52
119.17    2513.00
119.27    2302.00
119.37    2113.00
119.47    1831.67
119.57    1696.00
119.67    1496.00
119.77    1419.00
119.87    1219.00
119.97    1157.30
120.07    1119.46
120.17    1010.00
120.27     997.00
120.37     943.00
120.47     849.00
120.57     850.00
120.67     760.19
120.77     755.00
120.87     743.00
120.97     682.00
121.07     740.00
121.17     634.00
121.27     637.79
121.37     652.00
121.47     625.00
121.57     666.00
121.67     674.00
121.77     628.00
121.87     644.00
121.97     587.00
122.07     621.76
122.17     649.08
122.27     635.00
122.37     624.39
122.47     634.00
122.57     628.00
122.67     628.00
122.77     658.00
122.87     612.11
122.97     664.48
123.07     645.43
123.17     644.00
123.27     681.00
123.37     714.28
123.47     690.49
123.57     705.04
123.67     746.00
123.77     665.00
123.87     729.32
123.97     732.65
124.07     694.00
124.17     673.52
124.27     695.00
124.37     700.00
124.47     706.00
124.57     668.00
124.67     691.00
124.77     704.00
124.87     729.00
124.97     676.00
