  9.97     695.00
 10.07     702.00
 10.17     714.00
 10.27     653.00
 10.37     727.00
 10.47     697.00
 10.57     658.63
 10.67     700.00
 10.77     675.36
 10.87     686.00
 10.97     739.00
 11.07     731.68
 11.17     678.00
 11.27     666.00
 11.37     698.00
 11.47     649.47
 11.57     695.00
 11.67     689.00
 11.77     816.00
 11.87     712.57
 11.97     801.00
 12.07     764.45
 12.17     822.00
 12.27     829.00
 12.37     806.15
 12.47     764.38
 12.57     723.00
 12.67     685.00
 12.77     715.00
 12.87     703.00
 12.97     619.00
 13.07     660.00
 13.17     672.14
 13.27     625.00
 13.37     676.84
 13.47     678.00
 13.57     642.54
 13.67     676.00
 13.77     710.00
 13.87     664.30
 13.97     685.00
 14.07     653.00
 14.17     611.85
 14.27     641.00
 14.37     680.00
 14.47     700.00
 14.57     651.00
 14.67     608.26
 14.77     642.00
 14.87     623.00
 14.97     607.00
 15.07     612.09
 15.17     656.00
 15.27     671.00
 15.37     695.57
 15.47     636.00
 15.57     609.23
 15.67     629.70
 15.77     607.00
 15.87     661.00
 15.97     661.00
 16.07     619.00
 16.17     612.75
 16.27     617.00
 16.37     604.00
 16.47     627.00
 16.57     651.32
 16.67     631.00
 16.77     612.00
 16.87     602.56
 16.97     679.73
 17.07     610.00
 17.17     678.00
 17.27     646.00
 17.37     689.00
 17.47     629.44
 17.57     621.87
 17.67     682.51
 17.77     589.00
 17.87     588.00
 17.97     635.00
 18.07     600.74
 18.17     679.30
 18.27     669.55
 18.37     619.60
 18.47     606.14
 18.57     638.00
 18.67     673.36
 18.77     623.67
 18.87     596.00
 18.97     658.00
 19.07     624.10
 19.17     601.00
 19.27     660.18
 19.37     631.00
 19.47     626.00
 19.57     604.74
 19.67     606.00
 19.77     609.50
 19.87     622.00
 19.97     616.61
 20.07     582.10
 20.17     617.00
 20.27     569.00
 20.37     630.86
 20.47     629.00
 20.57     580.04
 20.67     574.45
 20.77     593.00
 20.87     628.00
 20.97     617.85
 21.07     570.00
 21.17     629.96
 21.27     628.00
 21.37     616.00
 21.47     637.53
 21.57     655.70
 21.67     657.04
 21.77     597.00
 21.87     567.00
 21.97     565.00
 22.07     599.00
 22.17     543.00
 22.27     595.49
 22.37     641.33
 22.47     601.00
 22.57     585.15
 22.67     615.00
 22.77     602.00
 22.87     580.00
 22.97     622.00
 23.07     596.64
 23.17     570.00
 23.27     627.00
 23.37     634.00
 23.47     655.55
 23.57     605.00
 23.67     657.00
 23.77     620.85
 23.87     596.00
 23.97     638.04
 24.07     601.68
 24.17     650.92
 24.27     601.00
 24.37     648.00
 24.47     610.88
 24.57     610.53
 24.67     678.00
 24.77     692.00
 24.87     671.00
 24.97     703.00
 25.07     632.00
 25.17     683.00
 25.27     676.00
 25.37     652.00
 25.47     680.00
 25.57     588.28
 25.67     651.00
 25.77     577.00
 25.87     646.75
 25.97     586.63
 26.07     594.51
 26.17     625.91
 26.27     653.00
 26.37     646.00
 26.47     688.00
 26.57     640.42
 26.67     605.94
 26.77     676.00
 26.87     637.00
 26.97     698.00
 27.07     627.23
 27.17     704.00
 27.27     666.00
 27.37     727.75
 27.47     719.53
 27.57     702.00
 27.67     818.00
 27.77     897.00
 27.87    1003.06
 27.97    1347.00
 28.07    1827.00
 28.17    3079.00
 28.27    4770.68
 28.37    6354.00
 28.47    6757.39
 28.57    6123.00
 28.67    4519.16
 28.77    3310.00
 28.87    2963.00
 28.97    3367.00
 29.07    3805.00
 29.17    3899.00
 29.27    3419.00
 29.37    2674.56
 29.47    1710.00
 29.57    1295.00
 29.67     979.79
 29.77     902.84
 29.87     823.00
 29.97     710.56
 30.07     753.00
 30.17     731.00
 30.27     696.69
 30.37     685.00
 30.47     673.00
 30.57     697.00
 30.67     691.00
 30.77     653.00
 30.87     700.00
 30.97     699.07
 31.07     688.99
 31.17     762.86
 31.27     759.00
 31.37     682.04
 31.47     669.00
 31.57     677.00
 31.67     600.09
 31.77     702.00
 31.87     676.00
 31.97     559.18
 32.07     662.00
 32.17     604.00
 32.27     598.12
 32.37     618.00
 32.47     626.00
 32.57     607.00
 32.67     588.82
 32.77     629.00
 32.87     642.00
 32.97     578.00
 33.07     640.00
 33.17     646.09
 33.27     626.00
 33.37     599.90
 33.47     640.00
 33.57     587.55
 33.67     641.00
 33.77     681.00
 33.87     729.00
 33.97     845.44
 34.07     966.00
 34.17    1097.00
 34.27    1158.00
 34.37    1210.00
 34.47    1123.00
 34.57     938.00
 34.67     818.00
 34.77     781.33
 34.87     684.00
 34.97     652.00
 35.07     643.00
 35.17     622.00
 35.27     643.00
 35.37     616.00
 35.47     617.00
 35.57     620.00
 35.67     657.00
 35.77     612.00
 35.87     550.94
 35.97     606.00
 36.07     602.00
 36.17     582.04
 36.27     591.00
 36.37     599.00
 36.47     534.87
 36.57     552.00
 36.67     589.00
 36.77     582.00
 36.87     588.00
 36.97     586.00
 37.07     617.00
 37.17     635.09
 37.27     628.00
 37.37     541.71
 37.47     554.61
 37.57     598.00
 37.67     629.00
 37.77     625.73
 37.87     590.01
 37.97     698.00
 38.07     649.91
 38.17     682.88
 38.27     721.00
 38.37     763.00
 38.47     675.00
 38.57     668.09
 38.67     630.00
 38.77     590.52
 38.87     590.96
 38.97     599.00
 39.07     606.00
 39.17     549.00
 39.27     560.00
 39.37     565.00
 39.47     561.00
 39.57     587.00
 39.67     563.00
 39.77     597.00
 39.87     591.00
 39.97     597.00
 40.07     602.96
 40.17     574.00
 40.27     547.50
 40.37     606.14
 40.47     591.80
 40.57     555.00
 40.67     544.65
 40.77     585.00
 40.87     575.00
 40.97     574.00
 41.07     580.00
 41.17     568.00
 41.27     622.99
 41.37     598.00
 41.47     609.13
 41.57     553.00
 41.67     597.00
 41.77     595.75
 41.87     545.88
 41.97     592.00
 42.07     627.13
 42.17     583.00
 42.27     599.00
 42.37     546.00
 42.47     612.60
 42.57     597.00
 42.67     600.00
 42.77     586.00
 42.87     627.00
 42.97     704.00
 43.07     680.00
 43.17     671.00
 43.27     661.00
 43.37     604.00
 43.47     629.00
 43.57     585.18
 43.67     571.19
 43.77     617.16
 43.87     604.00
 43.97     627.13
 44.07     583.00
 44.17     626.00
 44.27     571.00
 44.37     579.00
 44.47     594.00
 44.57     645.00
 44.67     562.00
 44.77     580.00
 44.87     612.00
 44.97     583.00
 45.07     586.00
 45.17     611.37
 45.27     604.00
 45.37     567.87
 45.47     610.00
 45.57     522.00
 45.67     620.00
 45.77     639.00
 45.87     603.13
 45.97     591.51
 46.07     629.00
 46.17     573.00
 46.27     566.65
 46.37     581.00
 46.47     601.00
 46.57     613.84
 46.67     599.67
 46.77     578.00
 46.87     562.00
 46.97     598.00
 47.07     601.00
 47.17     575.00
 47.27     573.00
 47.37     604.68
 47.47     603.00
 47.57     581.59
 47.67     634.00
 47.77     624.00
 47.87     632.00
 47.97     641.00
 48.07     629.00
 48.17     664.00
 48.27     655.00
 48.37     653.23
 48.47     647.27
 48.57     639.00
 48.67     602.00
 48.77     582.00
 48.87     612.00
 48.97     596.00
 49.07     612.00
 49.17     621.00
 49.27     647.00
 49.37     608.00
 49.47     618.80
 49.57     693.78
 49.67     696.23
 49.77     721.00
 49.87     829.30
 49.97     966.00
 50.07    1186.00
 50.17    1599.00
 50.27    2103.89
 50.37    2522.00
 50.47    2859.31
 50.57    2994.00
 50.67    2816.00
 50.77    2431.00
 50.87    1964.00
 50.97    1495.27
 51.07    1176.00
 51.17    1038.00
 51.27     826.35
 51.37     800.76
 51.47     732.09
 51.57     695.53
 51.67     728.00
 51.77     726.00
 51.87     691.30
 51.97     715.00
 52.07     700.00
 52.17     617.80
 52.27     704.00
 52.37     695.00
 52.47     674.00
 52.57     674.00
 52.67     694.00
 52.77     605.78
 52.87     616.67
 52.97     702.00
 53.07     680.00
 53.17     704.80
 53.27     782.00
 53.37     799.00
 53.47     890.00
 53.57     999.00
 53.67    1092.45
 53.77    1173.00
 53.87    1323.00
 53.97    1365.00
 54.07    1276.00
 54.17    1187.12
 54.27     966.00
 54.37     896.00
 54.47     822.17
 54.57     789.20
 54.67     724.00
 54.77     674.00
 54.87     684.62
 54.97     659.77
 55.07     608.43
 55.17     655.78
 55.27     662.83
 55.37     616.00
 55.47     654.00
 55.57     656.00
 55.67     617.00
 55.77     700.56
 55.87     682.39
 55.97     686.00
 56.07     708.81
 56.17     693.00
 56.27     698.92
 56.37     772.00
 56.47     873.64
 56.57     943.00
 56.67    1140.74
 56.77    1354.00
 56.87    1618.00
 56.97    1923.03
 57.07    2224.89
 57.17    2566.00
 57.27    2541.02
 57.37    2532.20
 57.47    2465.00
 57.57    2145.00
 57.67    1810.00
 57.77    1459.00
 57.87    1245.00
 57.97    1043.00
 58.07     907.97
 58.17     826.00
 58.27     737.00
 58.37     775.00
 58.47     819.00
 58.57     766.00
 58.67     853.00
 58.77     908.00
 58.87     944.27
 58.97    1093.00
 59.07    1172.70
 59.17    1268.00
 59.27    1283.00
 59.37    1295.00
 59.47    1391.36
 59.57    1358.00
 59.67    1208.36
 59.77    1255.00
 59.87    1193.99
 59.97    1228.00
 60.07    1244.00
 60.17    1309.00
 60.27    1337.92
 60.37    1407.79
 60.47    1514.00
 60.57    1590.00
 60.67    1650.00
 60.77    1530.00
 60.87    1430.52
 60.97    1267.26
 61.07    1218.00
 61.17    1061.25
 61.27     915.77
 61.37     846.85
 61.47     813.00
 61.57     805.00
 61.67     795.00
 61.77     820.91
 61.87     840.00
 61.97     891.00
 62.07    1093.11
 62.17    1133.94
 62.27    1266.00
 62.37    1447.02
 62.47    1587.00
 62.57    1683.00
 62.67    1628.00
 62.77    1614.00
 62.87    1473.00
 62.97    1268.00
 63.07    1177.00
 63.17    1046.91
 63.27     923.65
 63.37     829.77
 63.47     771.00
 63.57     688.22
 63.67     729.00
 63.77     758.00
 63.87     703.00
 63.97     667.00
 64.07     739.04
 64.17     720.95
 64.27     697.69
 64.37     786.00
 64.47     825.13
 64.57     903.12
 64.67    1048.00
 64.77    1103.00
 64.87    1148.64
 64.97    1342.00
 65.07    1450.00
 65.17    1469.00
 65.27    1429.58
 65.37    1449.17
 65.47    1400.00
 65.57    1248.81
 65.67    1103.00
 65.77    1056.00
 65.87     899.00
 65.97     872.18
 66.07     854.00
 66.17     740.00
 66.27     790.71
 66.37     668.04
 66.47     734.26
 66.57     668.18
 66.67     661.00
 66.77     631.00
 66.87     685.00
 66.97     648.00
 67.07     657.32
 67.17     693.09
 67.27     645.00
 67.37     691.00
 67.47     730.85
 67.57     764.00
 67.67     860.74
 67.77     967.00
 67.87    1043.00
 67.97    1242.46
 68.07    1448.00
 68.17    1714.22
 68.27    2003.59
 68.37    2126.00
 68.47    2377.00
 68.57    2515.27
 68.67    2526.76
 68.77    2410.00
 68.87    2355.00
 68.97    1890.61
 69.07    1691.26
 69.17    1502.00
 69.27    1359.62
 69.37    1154.35
 69.47    1036.00
 69.57     939.00
 69.67     823.50
 69.77     871.00
 69.87     818.00
 69.97     647.37
 70.07     781.00
 70.17     680.00
 70.27     708.00
 70.37     669.00
 70.47     659.00
 70.57     638.85
 70.67     701.00
 70.77     659.00
 70.87     678.00
 70.97     627.93
 71.07     628.61
 71.17     642.46
 71.27     737.00
 71.37     733.00
 71.47     721.00
 71.57     785.00
 71.67     879.00
 71.77     936.00
 71.87    1074.00
 71.97    1234.00
 72.07    1317.58
 72.17    1518.00
 72.27    1674.00
 72.37    1796.00
 72.47    1897.66
 72.57    2029.43
 72.67    1870.00
 72.77    1821.93
 72.87    1778.00
 72.97    1621.32
 73.07    1486.00
 73.17    1264.00
 73.27    1106.00
 73.37     990.12
 73.47     887.00
 73.57     841.00
 73.67     741.00
 73.77     744.00
 73.87     703.00
 73.97     690.00
 74.07     650.00
 74.17     638.00
 74.27     698.00
 74.37     607.00
 74.47     634.00
 74.57     622.00
 74.67     618.43
 74.77     623.00
 74.87     702.00
 74.97     694.00
 75.07     637.76
 75.17     688.33
 75.27     672.97
 75.37     625.89
 75.47     700.00
 75.57     679.00
 75.67     639.00
 75.77     633.67
 75.87     664.05
 75.97     625.00
 76.07     618.27
 76.17     702.10
 76.27     684.00
 76.37     729.00
 76.47     756.00
 76.57     766.00
 76.67     764.30
 76.77     863.00
 76.87     861.00
 76.97     973.00
 77.07     968.23
 77.17    1014.00
 77.27     980.62
 77.37     982.56
 77.47     941.00
 77.57     889.81
 77.67     833.29
 77.77     790.00
 77.87     786.00
 77.97     692.00
 78.07     667.00
 78.17     617.00
 78.27     698.63
 78.37     622.00
 78.47     588.07
 78.57     621.00
 78.67     577.71
 78.77     577.00
 78.87     601.11
 78.97     643.09
 79.07     579.76
 79.17     620.00
 79.27     600.00
 79.37     597.00
 79.47     643.21
 79.57     615.00
 79.67     599.00
 79.77     633.26
 79.87     614.00
 79.97     575.00
 80.07     658.39
 80.17     621.00
 80.27     660.75
 80.37     617.00
 80.47     673.00
 80.57     702.68
 80.67     724.00
 80.77     793.83
 80.87     836.14
 80.97     911.00
 81.07     890.34
 81.17     967.77
 81.27    1126.00
 81.37    1215.00
 81.47    1226.00
 81.57    1196.26
 81.67    1316.00
 81.77    1362.00
 81.87    1323.50
 81.97    1180.33
 82.07    1233.65
 82.17    1240.00
 82.27    1151.00
 82.37    1062.34
 82.47    1058.00
 82.57     934.66
 82.67     859.00
 82.77     817.85
 82.87     759.00
 82.97     802.28
 83.07     770.51
 83.17     691.00
 83.27     640.00
 83.37     660.66
 83.47     635.00
 83.57     706.91
 83.67     619.00
 83.77     616.00
 83.87     642.53
 83.97     647.00
 84.07     695.60
 84.17     702.33
 84.27     633.00
 84.37     683.00
 84.47     617.00
 84.57     574.00
 84.67     634.00
 84.77     648.00
 84.87     616.00
 84.97     589.00
 85.07     600.82
 85.17     640.00
 85.27     631.76
 85.37     601.00
 85.47     564.00
 85.57     574.00
 85.67     548.00
 85.77     609.00
 85.87     595.00
 85.97     591.68
 86.07     608.00
 86.17     600.00
 86.27     592.00
 86.37     610.53
 86.47     598.58
 86.57     626.00
 86.67     579.88
 86.77     603.19
 86.87     668.59
 86.97     660.10
 87.07     659.95
 87.17     647.02
 87.27     673.00
 87.37     619.63
 87.47     675.58
 87.57     690.00
 87.67     682.00
 87.77     733.00
 87.87     693.00
 87.97     684.62
 88.07     733.00
 88.17     752.00
 88.27     736.00
 88.37     654.22
 88.47     706.00
 88.57     654.56
 88.67     724.37
 88.77     686.00
 88.87     705.55
 88.97     639.38
 89.07     556.00
 89.17     639.84
 89.27     680.00
 89.37     636.00
 89.47     635.13
 89.57     639.00
 89.67     653.00
 89.77     685.00
 89.87     673.00
 89.97     661.00
 90.07     677.00
 90.17     646.71
 90.27     638.00
 90.37     623.00
 90.47     640.00
 90.57     630.00
 90.67     651.51
 90.77     636.70
 90.87     572.00
 90.97     584.00
 91.07     586.00
 91.17     569.00
 91.27     560.00
 91.37     557.00
 91.47     587.00
 91.57     600.00
 91.67     574.88
 91.77     600.00
 91.87     570.00
 91.97     531.60
 92.07     592.00
 92.17     591.00
 92.27     551.00
 92.37     564.90
 92.47     566.66
 92.57     591.00
 92.67     590.00
 92.77     654.44
 92.87     650.00
 92.97     680.07
 93.07     636.24
 93.17     632.00
 93.27     639.00
 93.37     738.43
 93.47     699.61
 93.57     764.98
 93.67     723.54
 93.77     738.69
 93.87     787.26
 93.97     802.00
 94.07     755.00
 94.17     802.73
 94.27     812.00
 94.37     847.00
 94.47     890.00
 94.57     883.00
 94.67     899.79
 94.77     934.25
 94.87     924.00
 94.97     934.46
 95.07     970.00
 95.17    1016.45
 95.27    1004.00
 95.37    1051.51
 95.47    1039.00
 95.57    1030.00
 95.67     999.00
 95.77    1054.65
 95.87     911.97
 95.97    1012.00
 96.07     906.96
 96.17     906.00
 96.27     885.00
 96.37     892.04
 96.47     854.00
 96.57     776.00
 96.67     791.00
 96.77     814.00
 96.87     778.00
 96.97     803.02
 97.07     886.00
 97.17     893.00
 97.27     889.87
 97.37     975.00
 97.47    1046.91
 97.57    1072.77
 97.67    1163.00
 97.77    1241.00
 97.87    1304.00
 97.97    1410.00
 98.07    1447.02
 98.17    1419.85
 98.27    1570.00
 98.37    1568.70
 98.47    1512.00
 98.57    1570.12
 98.67    1469.00
 98.77    1518.18
 98.87    1395.15
 98.97    1362.00
 99.07    1251.00
 99.17    1334.00
 99.27    1219.00
 99.37    1086.00
 99.47    1026.00
 99.57     986.00
 99.67     975.55
 99.77     913.67
 99.87     925.67
 99.97     975.00
100.07    1047.00
100.17    1072.00
100.27    1144.00
100.37    1186.00
100.47    1300.00
100.57    1364.73
100.67    1406.00
100.77    1555.00
100.87    1532.00
100.97    1718.00
101.07    1809.00
101.17    1871.00
101.27    1988.00
101.37    1899.47
101.47    2089.00
101.57    2113.00
101.67    2076.19
101.77    2043.85
101.87    2027.10
101.97    1962.37
102.07    1990.00
102.17    1952.79
102.27    1809.08
102.37    1744.00
102.47    1674.00
102.57    1622.00
102.67    1545.00
102.77    1410.00
102.87    1387.00
102.97    1355.00
103.07    1374.09
103.17    1239.00
103.27    1279.68
103.37    1196.00
103.47    1206.12
103.57    1254.51
103.67    1162.33
103.77    1077.00
103.87    1077.00
103.97    1023.00
104.07    1023.11
104.17     991.33
104.27     910.00
104.37     926.44
104.47     922.19
104.57     808.00
104.67     776.00
104.77     779.00
104.87     784.00
104.97     756.00
105.07     686.82
105.17     678.00
105.27     637.00
105.37     653.95
105.47     667.00
105.57     677.00
105.67     646.00
105.77     623.46
105.87     604.36
105.97     638.00
106.07     611.10
106.17     622.00
106.27     591.00
106.37     609.00
106.47     626.00
106.57     613.00
106.67     570.41
106.77     622.00
106.87     670.00
106.97     661.00
107.07     673.00
107.17     669.00
107.27     626.48
107.37     667.00
107.47     682.00
107.57     662.00
107.67     652.52
107.77     694.09
107.87     746.00
107.97     745.00
108.07     726.84
108.17     785.00
108.27     725.00
108.37     715.35
108.47     745.00
108.57     699.00
108.67     750.63
108.77     768.56
108.87     720.00
108.97     697.00
109.07     787.91
109.17     813.42
109.27     739.00
109.37     715.00
109.47     738.00
109.57     722.00
109.67     741.00
109.77     713.00
109.87     751.98
109.97     725.62
110.07     735.00
110.17     776.00
110.27     733.00
110.37     737.00
110.47     739.78
110.57     723.00
110.67     706.00
110.77     726.00
110.87     651.00
110.97     719.00
111.07     657.00
111.17     696.32
111.27     687.15
111.37     628.49
111.47     584.95
111.57     601.57
111.67     587.04
111.77     614.59
111.87     611.00
111.97     567.00
112.07     612.00
112.17     625.00
112.27     576.00
112.37     626.00
112.47     613.65
112.57     577.00
112.67     546.56
112.77     642.00
112.87     597.00
112.97     617.52
113.07     600.00
113.17     585.29
113.27     603.00
113.37     598.00
113.47     622.28
113.57     611.00
113.67     659.00
113.77     651.69
113.87     595.74
113.97     598.00
114.07     663.00
114.17     629.00
114.27     665.86
114.37     667.05
114.47     736.05
114.57     707.00
114.67     687.25
114.77     775.83
114.87     734.00
114.97     830.00
115.07     864.85
115.17     938.00
115.27     972.00
115.37    1112.90
115.47    1146.00
115.57    1291.00
115.67    1476.00
115.77    1632.00
115.87    1841.57
115.97    2036.00
116.07    2206.00
116.17    2538.38
116.27    2770.00
116.37    3171.00
116.47    3615.99
116.57    3737.02
116.67    4206.00
116.77    4622.00
116.87    4994.28
116.97    5355.00
117.07    5905.86
117.17    6093.00
117.27    6628.00
117.37    6727.00
117.47    7179.00
117.57    7316.00
117.67    7504.81
117.77    7516.00
117.87    7458.61
117.97    7219.43
118.07    7426.06
118.17    6894.00
118.27    6737.00
118.37    6480.00
118.47    6045.00
118.57    5858.00
118.67    5533.00
118.77    4988.35
118.87    4873.00
118.97    4338.00
119.07    3945.44
119.17    3690.00
119.27    3317.00
119.37    3073.00
119.47    2755.95
119.57    2339.56
119.67    2135.10
119.77    2032.00
119.87    1749.30
119.97    1679.82
120.07    1539.00
120.17    1418.53
120.27    1320.00
120.37    1182.00
120.47    1123.00
120.57    1086.00
120.67    1008.43
120.77     855.09
120.87     845.71
120.97     846.00
121.07     811.00
121.17     764.00
121.27     799.00
121.37     750.81
121.47     746.00
121.57     670.00
121.67     704.00
121.77     729.57
121.87     742.52
121.97     688.18
122.07     649.00
122.17     672.25
122.27     710.22
122.37     649.91
122.47     703.79
122.57     636.00
122.67     682.00
122.77     636.00
122.87     671.00
122.97     738.00
123.07     690.00
123.17     666.00
123.27     750.87
123.37     724.16
123.47     738.65
123.57     721.00
123.67     754.95
123.77     749.86
123.87     698.47
123.97     785.00
124.07     743.00
124.17     780.00
124.27     769.75
124.37     752.00
124.47     782.48
124.57     761.05
124.67     768.00
124.77     705.51
124.87     780.00
124.97     745.99
