  9.97     607.08
 10.07     594.00
 10.17     596.55
 10.27     591.00
 10.37     634.00
 10.47     615.00
 10.57     605.00
 10.67     580.00
 10.77     567.00
 10.87     555.00
 10.97     539.23
 11.07     568.23
 11.17     579.00
 11.27     612.00
 11.37     620.00
 11.47     595.00
 11.57     596.03
 11.67     576.68
 11.77     605.86
 11.87     617.00
 11.97     659.00
 12.07     706.00
 12.17     747.00
 12.27     679.00
 12.37     707.34
 12.47     584.00
 12.57     563.00
 12.67     577.78
 12.77     635.00
 12.87     552.00
 12.97     578.00
 13.07     546.12
 13.17     600.00
 13.27     581.00
 13.37     560.00
 13.47     572.00
 13.57     614.20
 13.67     567.00
 13.77     561.00
 13.87     593.00
 13.97     579.00
 14.07     593.00
 14.17     559.38
 14.27     566.00
 14.37     523.00
 14.47     584.00
 14.57     555.00
 14.67     525.00
 14.77     526.00
 14.87     553.00
 14.97     563.43
 15.07     550.00
 15.17     579.92
 15.27     581.00
 15.37     585.37
 15.47     593.29
 15.57     582.00
 15.67     599.00
 15.77     552.00
 15.87     560.00
 15.97     557.00
 16.07     597.53
 16.17     586.94
 16.27     528.12
 16.37     532.00
 16.47     542.00
 16.57     559.00
 16.67     579.00
 16.77     550.00
 16.87     535.38
 16.97     608.45
 17.07     542.00
 17.17     588.36
 17.27     523.48
 17.37     529.52
 17.47     578.00
 17.57     571.00
 17.67     549.00
 17.77     577.23
 17.87     560.00
 17.97     586.51
 18.07     523.00
 18.17     556.00
 18.27     539.00
 18.37     523.93
 18.47     539.00
 18.57     604.92
 18.67     490.00
 18.77     559.00
 18.87     524.00
 18.97     563.00
 19.07     574.00
 19.17     563.00
 19.27     545.00
 19.37     567.88
 19.47     556.00
 19.57     532.48
 19.67     550.00
 19.77     531.00
 19.87     526.03
 19.97     546.00
 20.07     563.00
 20.17     520.39
 20.27     552.00
 20.37     582.00
 20.47     567.73
 20.57     562.00
 20.67     531.00
 20.77     576.98
 20.87     563.71
 20.97     545.00
 21.07     594.00
 21.17     546.09
 21.27     543.48
 21.37     539.38
 21.47     563.42
 21.57     565.14
 21.67     599.09
 21.77     568.00
 21.87     573.00
 21.97     522.41
 22.07     546.00
 22.17     531.00
 22.27     532.58
 22.37     587.88
 22.47     553.00
 22.57     507.42
 22.67     547.00
 22.77     562.00
 22.87     534.00
 22.97     529.09
 23.07     528.41
 23.17     593.85
 23.27     502.00
 23.37     571.00
 23.47     570.67
 23.57     575.00
 23.67     560.29
 23.77     543.53
 23.87     549.00
 23.97     587.53
 24.07     524.69
 24.17     565.00
 24.27     553.00
 24.37     562.00
 24.47     634.00
 24.57     611.00
 24.67     614.00
 24.77     637.17
 24.87     625.00
 24.97     637.46
 25.07     596.30
 25.17     552.55
 25.27     554.00
 25.37     559.00
 25.47     556.00
 25.57     515.00
 25.67     543.00
 25.77     635.00
 25.87     585.00
 25.97     588.00
 26.07     535.00
 26.17     551.87
 26.27     532.00
 26.37     499.42
 26.47     500.43
 26.57     555.39
 26.67     525.35
 26.77     581.00
 26.87     564.00
 26.97     536.00
 27.07     557.00
 27.17     553.00
 27.27     581.00
 27.37     582.00
 27.47     590.00
 27.57     552.00
 27.67     555.32
 27.77     540.36
 27.87     595.85
 27.97     642.00
 28.07     763.00
 28.17     919.00
 28.27     975.00
 28.37     943.13
 28.47     801.00
 28.57     751.84
 28.67     659.17
 28.77     722.00
 28.87     818.00
 28.97     842.00
 29.07     753.00
 29.17     694.00
 29.27     570.00
 29.37     628.96
 29.47     585.68
 29.57     582.00
 29.67     608.00
 29.77     601.99
 29.87     577.00
 29.97     541.00
 30.07     518.00
 30.17     505.00
 30.27     586.08
 30.37     544.29
 30.47     592.00
 30.57     509.29
 30.67     577.00
 30.77     615.00
 30.87     583.00
 30.97     633.00
 31.07     625.32
 31.17     595.00
 31.27     550.00
 31.37     530.98
 31.47     543.00
 31.57     576.00
 31.67     534.00
 31.77     594.00
 31.87     543.00
 31.97     525.44
 32.07     562.00
 32.17     576.00
 32.27     568.00
 32.37     542.00
 32.47     545.00
 32.57     569.00
 32.67     545.37
 32.77     527.00
 32.87     546.00
 32.97     527.00
 33.07     562.00
 33.17     535.17
 33.27     512.24
 33.37     549.00
 33.47     576.00
 33.57     650.00
 33.67     643.00
 33.77     727.22
 33.87     904.00
 33.97    1033.94
 34.07    1105.00
 34.17    1048.00
 34.27     950.02
 34.37     716.00
 34.47     666.00
 34.57     555.35
 34.67     551.00
 34.77     558.00
 34.87     555.00
 34.97     576.52
 35.07     543.00
 35.17     481.00
 35.27     550.19
 35.37     523.00
 35.47     506.00
 35.57     489.00
 35.67     537.00
 35.77     507.62
 35.87     525.00
 35.97     496.81
 36.07     511.00
 36.17     504.00
 36.27     487.00
 36.37     474.00
 36.47     492.00
 36.57     482.00
 36.67     536.00
 36.77     489.70
 36.87     506.00
 36.97     554.12
 37.07     530.00
 37.17     517.62
 37.27     522.00
 37.37     509.00
 37.47     552.72
 37.57     513.00
 37.67     510.00
 37.77     531.00
 37.87     512.00
 37.97     487.99
 38.07     547.20
 38.17     541.02
 38.27     484.00
 38.37     510.00
 38.47     506.00
 38.57     462.00
 38.67     551.00
 38.77     507.96
 38.87     550.98
 38.97     506.33
 39.07     512.00
 39.17     537.00
 39.27     503.00
 39.37     527.00
 39.47     507.12
 39.57     496.78
 39.67     514.00
 39.77     471.00
 39.87     477.00
 39.97     512.00
 40.07     531.00
 40.17     540.85
 40.27     529.00
 40.37     509.51
 40.47     536.00
 40.57     499.00
 40.67     526.81
 40.77     490.04
 40.87     531.24
 40.97     515.00
 41.07     481.09
 41.17     517.00
 41.27     513.00
 41.37     541.84
 41.47     538.32
 41.57     556.00
 41.67     518.00
 41.77     475.60
 41.87     470.00
 41.97     480.00
 42.07     490.07
 42.17     504.00
 42.27     541.00
 42.37     554.64
 42.47     580.07
 42.57     576.00
 42.67     613.00
 42.77     613.00
 42.87     576.00
 42.97     550.16
 43.07     520.00
 43.17     506.00
 43.27     519.00
 43.37     498.00
 43.47     514.36
 43.57     497.00
 43.67     502.00
 43.77     530.00
 43.87     519.42
 43.97     483.98
 44.07     526.20
 44.17     548.26
 44.27     507.00
 44.37     528.00
 44.47     548.16
 44.57     523.73
 44.67     529.50
 44.77     538.01
 44.87     483.04
 44.97     514.00
 45.07     503.00
 45.17     464.73
 45.27     465.02
 45.37     476.00
 45.47     497.87
 45.57     467.00
 45.67     462.97
 45.77     486.62
 45.87     488.00
 45.97     525.92
 46.07     496.25
 46.17     484.00
 46.27     543.00
 46.37     482.45
 46.47     491.13
 46.57     488.00
 46.67     497.00
 46.77     495.07
 46.87     492.00
 46.97     523.00
 47.07     490.00
 47.17     537.00
 47.27     517.00
 47.37     511.00
 47.47     571.00
 47.57     585.00
 47.67     573.72
 47.77     588.00
 47.87     595.00
 47.97     590.00
 48.07     605.22
 48.17     566.11
 48.27     611.00
 48.37     572.77
 48.47     526.00
 48.57     550.00
 48.67     500.00
 48.77     528.23
 48.87     530.00
 48.97     573.02
 49.07     543.00
 49.17     589.00
 49.27     616.00
 49.37     670.59
 49.47     632.80
 49.57     783.00
 49.67     856.00
 49.77    1152.00
 49.87    1374.38
 49.97    1799.19
 50.07    2263.00
 50.17    2492.15
 50.27    2506.86
 50.37    2252.36
 50.47    1873.00
 50.57    1453.00
 50.67    1053.00
 50.77     844.00
 50.87     730.00
 50.97     649.93
 51.07     625.46
 51.17     651.39
 51.27     590.00
 51.37     593.00
 51.47     567.00
 51.57     561.00
 51.67     572.39
 51.77     568.00
 51.87     551.00
 51.97     564.19
 52.07     519.00
 52.17     523.00
 52.27     502.01
 52.37     554.00
 52.47     597.00
 52.57     537.00
 52.67     645.00
 52.77     563.18
 52.87     641.00
 52.97     750.00
 53.07     796.00
 53.17     942.00
 53.27    1059.00
 53.37    1151.00
 53.47    1197.00
 53.57    1167.00
 53.67    1116.00
 53.77    1075.47
 53.87     932.16
 53.97     742.00
 54.07     640.80
 54.17     624.00
 54.27     599.14
 54.37     571.00
 54.47     599.00
 54.57     579.00
 54.67     510.76
 54.77     553.00
 54.87     519.50
 54.97     502.84
 55.07     566.00
 55.17     577.00
 55.27     580.40
 55.37     526.79
 55.47     568.00
 55.57     573.00
 55.67     609.46
 55.77     553.45
 55.87     559.16
 55.97     586.00
 56.07     650.00
 56.17     751.00
 56.27     946.54
 56.37    1088.00
 56.47    1393.00
 56.57    1715.00
 56.67    2274.62
 56.77    2428.00
 56.87    2632.35
 56.97    2640.00
 57.07    2344.26
 57.17    2072.00
 57.27    1692.01
 57.37    1333.00
 57.47    1105.00
 57.57     860.05
 57.67     785.00
 57.77     720.00
 57.87     654.00
 57.97     645.00
 58.07     694.00
 58.17     765.31
 58.27     777.00
 58.37     872.00
 58.47     894.00
 58.57    1037.00
 58.67    1218.00
 58.77    1322.00
 58.87    1401.00
 58.97    1475.18
 59.07    1563.00
 59.17    1461.00
 59.27    1432.00
 59.37    1268.00
 59.47    1260.00
 59.57    1130.59
 59.67    1134.00
 59.77    1157.00
 59.87    1283.00
 59.97    1352.00
 60.07    1496.15
 60.17    1536.00
 60.27    1589.69
 60.37    1574.00
 60.47    1435.67
 60.57    1299.67
 60.67    1121.49
 60.77     877.57
 60.87     785.00
 60.97     714.00
 61.07     634.00
 61.17     664.25
 61.27     649.00
 61.37     645.14
 61.47     698.39
 61.57     776.11
 61.67     805.00
 61.77     966.09
 61.87    1117.00
 61.97    1258.00
 62.07    1341.64
 62.17    1383.86
 62.27    1399.00
 62.37    1377.97
 62.47    1128.00
 62.57    1049.00
 62.67     894.13
 62.77     826.67
 62.87     705.00
 62.97     661.00
 63.07     634.54
 63.17     585.00
 63.27     593.00
 63.37     511.00
 63.47     576.00
 63.57     591.74
 63.67     623.00
 63.77     548.26
 63.87     634.00
 63.97     626.02
 64.07     675.02
 64.17     795.00
 64.27     854.00
 64.37     905.00
 64.47     954.00
 64.57    1031.73
 64.67    1053.37
 64.77    1055.39
 64.87     949.48
 64.97     958.00
 65.07     893.82
 65.17     836.45
 65.27     769.55
 65.37     685.00
 65.47     583.00
 65.57     590.00
 65.67     621.00
 65.77     617.13
 65.87     571.24
 65.97     627.00
 66.07     561.00
 66.17     549.13
 66.27     549.00
 66.37     546.00
 66.47     556.00
 66.57     587.00
 66.67     571.64
 66.77     590.00
 66.87     583.00
 66.97     579.00
 67.07     630.00
 67.17     731.08
 67.27     728.52
 67.37     905.00
 67.47    1125.85
 67.57    1277.00
 67.67    1501.00
 67.77    1764.00
 67.87    2009.00
 67.97    2370.00
 68.07    2493.00
 68.17    2362.00
 68.27    2277.00
 68.37    2088.00
 68.47    1741.00
 68.57    1584.00
 68.67    1175.00
 68.77    1030.57
 68.87     895.00
 68.97     812.00
 69.07     733.00
 69.17     688.52
 69.27     662.34
 69.37     576.91
 69.47     598.00
 69.57     547.63
 69.67     625.00
 69.77     546.76
 69.87     608.00
 69.97     591.41
 70.07     524.00
 70.17     575.00
 70.27     594.63
 70.37     606.69
 70.47     577.95
 70.57     635.00
 70.67     539.00
 70.77     602.00
 70.87     616.84
 70.97     604.54
 71.07     674.00
 71.17     706.00
 71.27     878.79
 71.37     904.00
 71.47    1033.45
 71.57    1238.00
 71.67    1441.49
 71.77    1705.00
 71.87    1807.26
 71.97    1903.00
 72.07    1966.00
 72.17    1975.00
 72.27    1792.00
 72.37    1696.00
 72.47    1467.03
 72.57    1342.00
 72.67    1165.00
 72.77    1041.00
 72.87     921.00
 72.97     867.56
 73.07     838.98
 73.17     706.00
 73.27     757.06
 73.37     670.17
 73.47     662.83
 73.57     615.00
 73.67     622.00
 73.77     628.00
 73.87     633.00
 73.97     632.02
 74.07     594.62
 74.17     625.00
 74.27     537.09
 74.37     624.00
 74.47     566.29
 74.57     658.00
 74.67     580.20
 74.77     524.73
 74.87     609.87
 74.97     583.64
 75.07     565.98
 75.17     549.88
 75.27     593.00
 75.37     524.41
 75.47     542.00
 75.57     518.68
 75.67     558.00
 75.77     531.47
 75.87     527.00
 75.97     584.11
 76.07     674.49
 76.17     625.00
 76.27     661.00
 76.37     722.04
 76.47     683.00
 76.57     724.00
 76.67     687.00
 76.77     646.00
 76.87     640.62
 76.97     637.00
 77.07     602.00
 77.17     564.06
 77.27     586.00
 77.37     537.43
 77.47     539.00
 77.57     538.69
 77.67     553.25
 77.77     575.52
 77.87     566.36
 77.97     488.00
 78.07     516.91
 78.17     550.00
 78.27     560.05
 78.37     489.27
 78.47     528.00
 78.57     512.00
 78.67     525.34
 78.77     543.00
 78.87     508.00
 78.97     494.00
 79.07     528.00
 79.17     510.00
 79.27     532.00
 79.37     482.00
 79.47     501.00
 79.57     532.47
 79.67     521.14
 79.77     559.00
 79.87     531.00
 79.97     532.00
 80.07     570.00
 80.17     515.64
 80.27     549.23
 80.37     550.00
 80.47     551.00
 80.57     574.00
 80.67     596.62
 80.77     674.38
 80.87     709.22
 80.97     693.88
 81.07     666.59
 81.17     752.00
 81.27     706.00
 81.37     721.00
 81.47     757.00
 81.57     792.00
 81.67     787.00
 81.77     720.04
 81.87     755.00
 81.97     675.22
 82.07     625.75
 82.17     618.71
 82.27     585.53
 82.37     630.00
 82.47     587.00
 82.57     575.76
 82.67     585.12
 82.77     559.00
 82.87     559.00
 82.97     540.00
 83.07     510.87
 83.17     532.00
 83.27     518.00
 83.37     536.00
 83.47     544.00
 83.57     566.00
 83.67     613.56
 83.77     581.00
 83.87     533.00
 83.97     548.00
 84.07     552.88
 84.17     573.00
 84.27     560.00
 84.37     526.12
 84.47     546.00
 84.57     506.00
 84.67     556.00
 84.77     557.85
 84.87     553.00
 84.97     560.00
 85.07     547.03
 85.17     547.00
 85.27     534.00
 85.37     521.00
 85.47     536.00
 85.57     492.00
 85.67     547.00
 85.77     547.00
 85.87     519.00
 85.97     581.00
 86.07     523.00
 86.17     491.97
 86.27     484.00
 86.37     482.00
 86.47     516.04
 86.57     545.31
 86.67     575.00
 86.77     589.32
 86.87     595.00
 86.97     592.00
 87.07     649.59
 87.17     647.00
 87.27     655.65
 87.37     625.00
 87.47     649.20
 87.57     624.00
 87.67     661.00
 87.77     647.00
 87.87     650.72
 87.97     603.00
 88.07     591.38
 88.17     556.00
 88.27     623.00
 88.37     574.00
 88.47     594.00
 88.57     561.49
 88.67     513.00
 88.77     572.00
 88.87     533.83
 88.97     539.62
 89.07     560.13
 89.17     582.00
 89.27     566.13
 89.37     597.00
 89.47     647.00
 89.57     574.00
 89.67     566.00
 89.77     614.00
 89.87     564.72
 89.97     571.00
 90.07     495.00
 90.17     552.85
 90.27     586.00
 90.37     546.00
 90.47     543.32
 90.57     543.00
 90.67     536.22
 90.77     513.00
 90.87     528.00
 90.97     498.59
 91.07     517.00
 91.17     510.00
 91.27     495.00
 91.37     501.00
 91.47     547.00
 91.57     545.00
 91.67     477.00
 91.77     547.80
 91.87     525.89
 91.97     597.92
 92.07     519.02
 92.17     572.00
 92.27     552.12
 92.37     561.00
 92.47     654.09
 92.57     669.09
 92.67     629.90
 92.77     668.72
 92.87     683.00
 92.97     715.00
 93.07     743.00
 93.17     722.72
 93.27     770.00
 93.37     792.00
 93.47     774.00
 93.57     800.00
 93.67     869.00
 93.77     815.33
 93.87     765.30
 93.97     843.00
 94.07     841.00
 94.17     853.10
 94.27     884.00
 94.37     854.00
 94.47     893.00
 94.57     964.00
 94.67     898.72
 94.77     907.00
 94.87     889.35
 94.97    1002.00
 95.07     907.00
 95.17     925.00
 95.27     831.00
 95.37     840.89
 95.47     771.29
 95.57     795.00
 95.67     762.00
 95.77     723.21
 95.87     666.47
 95.97     679.00
 96.07     649.11
 96.17     687.00
 96.27     688.50
 96.37     769.00
 96.47     762.40
 96.57     910.00
 96.67     890.00
 96.77    1008.00
 96.87    1075.00
 96.97    1150.27
 97.07    1154.00
 97.17    1235.50
 97.27    1358.00
 97.37    1431.92
 97.47    1386.00
 97.57    1405.00
 97.67    1432.00
 97.77    1441.41
 97.87    1380.00
 97.97    1306.10
 98.07    1272.50
 98.17    1182.03
 98.27    1137.49
 98.37    1042.00
 98.47     943.00
 98.57     883.00
 98.67     820.00
 98.77     804.00
 98.87     803.12
 98.97     756.75
 99.07     837.41
 99.17     853.00
 99.27     908.12
 99.37     900.00
 99.47     955.00
 99.57    1073.99
 99.67    1188.00
 99.77    1294.00
 99.87    1447.00
 99.97    1552.00
100.07    1628.00
100.17    1786.00
100.27    1799.13
100.37    1932.00
100.47    2045.02
100.57    2084.25
100.67    2128.00
100.77    2042.95
100.87    2079.00
100.97    2069.00
101.07    2021.16
101.17    1917.00
101.27    1831.00
101.37    1636.04
101.47    1580.00
101.57    1496.00
101.67    1473.00
101.77    1387.00
101.87    1276.00
101.97    1304.42
102.07    1230.00
102.17    1122.92
102.27    1200.00
102.37    1121.00
102.47    1060.00
102.57    1053.12
102.67    1037.00
102.77    1052.00
102.87     957.00
102.97    1030.20
103.07     933.16
103.17     834.00
103.27     872.00
103.37     801.40
103.47     830.00
103.57     780.00
103.67     657.12
103.77     718.00
103.87     628.00
103.97     613.75
104.07     611.00
104.17     588.00
104.27     535.75
104.37     587.00
104.47     560.00
104.57     523.00
104.67     580.00
104.77     555.00
104.87     556.00
104.97     599.00
105.07     568.00
105.17     580.00
105.27     558.00
105.37     530.00
105.47     497.33
105.57     554.00
105.67     563.00
105.77     543.00
105.87     569.00
105.97     580.97
106.07     616.39
106.17     551.00
106.27     611.90
106.37     602.00
106.47     555.00
106.57     678.69
106.67     608.15
106.77     617.00
106.87     636.24
106.97     662.00
107.07     709.00
107.17     650.00
107.27     706.00
107.37     659.00
107.47     716.00
107.57     744.00
107.67     664.48
107.77     730.79
107.87     724.86
107.97     665.13
108.07     684.00
108.17     701.00
108.27     683.00
108.37     656.21
108.47     695.00
108.57     643.00
108.67     668.64
108.77     702.00
108.87     703.00
108.97     740.36
109.07     649.00
109.17     645.00
109.27     634.00
109.37     687.00
109.47     661.00
109.57     606.00
109.67     698.00
109.77     595.67
109.87     608.00
109.97     643.00
110.07     608.00
110.17     557.00
110.27     560.00
110.37     553.00
110.47     530.00
110.57     540.00
110.67     545.00
110.77     550.00
110.87     588.18
110.97     571.61
111.07     567.00
111.17     518.59
111.27     560.00
111.37     545.20
111.47     531.00
111.57     547.11
111.67     536.27
111.77     528.00
111.87     523.01
111.97     597.31
112.07     605.00
112.17     587.40
112.27     580.00
112.37     586.00
112.47     609.00
112.57     572.44
112.67     576.00
112.77     614.00
112.87     604.55
112.97     647.00
113.07     679.00
113.17     697.90
113.27     705.00
113.37     758.00
113.47     790.88
113.57     788.00
113.67     823.09
113.77     873.00
113.87     882.00
113.97     931.00
114.07    1000.43
114.17    1013.66
114.27    1107.00
114.37    1201.57
114.47    1276.81
114.57    1349.47
114.67    1471.18
114.77    1637.17
114.87    1822.00
114.97    2066.00
115.07    2203.45
115.17    2434.07
115.27    2799.05
115.37    3177.00
115.47    3505.00
115.57    3746.51
115.67    4098.00
115.77    4441.00
115.87    4687.00
115.97    5171.00
116.07    5606.00
116.17    5925.00
116.27    6212.00
116.37    6562.00
116.47    6840.73
116.57    6968.00
116.67    6913.38
116.77    7097.00
116.87    7024.00
116.97    6613.00
117.07    6267.00
117.17    6052.00
117.27    5776.93
117.37    5389.58
117.47    4936.94
117.57    4617.00
117.67    4292.00
117.77    3946.87
117.87    3388.92
117.97    3295.00
118.07    3053.00
118.17    2631.00
118.27    2205.00
118.37    2012.00
118.47    1822.67
118.57    1579.00
118.67    1407.00
118.77    1291.34
118.87    1085.00
118.97    1100.80
119.07     970.00
119.17     891.00
119.27     827.34
119.37     849.00
119.47     759.00
119.57     702.00
119.67     702.70
119.77     640.73
119.87     676.92
119.97     609.00
120.07     615.00
120.17     590.00
120.27     559.00
120.37     580.00
120.47     573.00
120.57     613.00
120.67     627.29
120.77     574.00
120.87     596.00
120.97     572.00
121.07     619.69
121.17     566.00
121.27     557.00
121.37     596.07
121.47     555.82
121.57     593.00
121.67     637.00
121.77     590.00
121.87     563.00
121.97     555.00
122.07     650.28
122.17     622.81
122.27     611.00
122.37     623.00
122.47     625.00
122.57     678.40
122.67     666.77
122.77     638.15
122.87     658.44
122.97     667.00
123.07     654.52
123.17     648.00
123.27     619.44
123.37     675.00
123.47     650.14
123.57     659.00
123.67     638.00
123.77     674.00
123.87     626.00
123.97     583.43
124.07     570.14
124.17     626.00
124.27     642.04
124.37     587.46
124.47     550.55
124.57     561.00
124.67     600.07
124.77     567.00
124.87     546.31
124.97     553.00
